Data from solis365c_3750mA_gray_FLMS192441__3__16-13-09-351.txt Node

Date: Tue Sep 13 16:13:09 CEST 2022
User: Spectrometer
Spectrometer: FLMS19244
Trigger mode: 0
Integration Time (sec): 1.000000E-1
Scans to average: 1
Electric dark correction enabled: true
Nonlinearity correction enabled: false
Boxcar width: 0
XAxis mode: Wavelengths
Number of Pixels in Spectrum: 2048
>>>>>Begin Spectral Data<<<<<
338.974	-14.76
339.356	-14.76
339.738	-14.76
340.12	-73.19
340.502	-93.51
340.883	-73.19
341.265	-98.59
341.647	-88.43
342.029	-57.95
342.41	-57.95
342.792	-68.11
343.173	-90.97
343.555	-45.25
343.936	0.48
344.318	41.12
344.699	41.12
345.08	97
345.462	74.14
345.843	107.17
346.224	147.81
346.605	71.6
346.986	79.22
347.368	168.13
347.749	150.35
348.13	160.51
348.51	178.29
348.891	251.96
349.272	241.8
349.653	257.04
350.034	267.2
350.414	318
350.795	282.44
351.176	272.28
351.556	300.22
351.937	295.14
352.317	279.9
352.698	323.08
353.078	287.52
353.459	277.36
353.839	290.06
354.219	246.88
354.599	302.76
354.98	351.03
355.36	351.03
355.74	312.92
356.12	305.3
356.5	272.28
356.88	312.92
357.26	262.12
357.64	373.89
358.02	305.3
358.399	318
358.779	277.36
359.159	358.65
359.539	338.32
359.918	244.34
360.298	305.3
360.677	320.54
361.057	310.38
361.436	320.54
361.816	284.98
362.195	290.06
362.574	262.12
362.954	307.84
363.333	343.41
363.712	284.98
364.091	272.28
364.47	358.65
364.849	300.22
365.228	282.44
365.607	305.3
365.986	272.28
366.365	264.66
366.744	287.52
367.123	287.52
367.501	279.9
367.88	221.47
368.259	218.93
368.637	320.54
369.016	254.5
369.394	287.52
369.773	338.32
370.151	318
370.53	292.6
370.908	279.9
371.286	300.22
371.665	259.58
372.043	315.46
372.421	318
372.799	297.68
373.177	358.65
373.555	241.8
373.933	290.06
374.311	249.42
374.689	295.14
375.067	310.38
375.445	338.32
375.823	358.65
376.2	389.13
376.578	295.14
376.956	333.24
377.333	345.95
377.711	457.71
378.088	406.91
378.466	422.15
378.843	490.74
379.22	376.43
379.598	427.23
379.975	452.63
380.352	450.09
380.73	478.04
381.107	467.88
381.484	432.31
381.861	470.42
382.238	437.39
382.615	488.2
382.992	427.23
383.369	556.78
383.746	549.16
384.122	544.08
384.499	630.45
384.876	503.44
385.252	592.35
385.629	594.89
386.006	587.27
386.382	671.09
386.759	704.12
387.135	666.01
387.512	556.78
387.888	612.67
388.264	599.97
388.641	686.33
389.017	617.75
389.393	724.44
389.769	671.09
390.145	655.85
390.521	648.23
390.897	622.83
391.273	625.37
391.649	732.06
392.025	678.71
392.401	622.83
392.777	610.13
393.152	632.99
393.528	640.61
393.904	602.51
394.279	645.69
394.655	635.53
395.03	630.45
395.406	564.4
395.781	630.45
396.157	577.11
396.532	561.86
396.907	696.5
397.283	551.7
397.658	605.05
398.033	541.54
398.408	472.96
398.783	602.51
399.158	594.89
399.533	546.62
399.908	539
400.283	500.9
400.658	508.52
401.033	536.46
401.407	541.54
401.782	472.96
402.157	462.8
402.531	447.55
402.906	419.61
403.28	533.92
403.655	536.46
404.029	460.26
404.404	457.71
404.778	478.04
405.153	511.06
405.527	480.58
405.901	396.75
406.275	406.91
406.649	356.11
407.023	498.36
407.397	478.04
407.771	462.8
408.145	411.99
408.519	457.71
408.893	447.55
409.267	376.43
409.641	394.21
410.015	419.61
410.388	503.44
410.762	432.31
411.136	376.43
411.509	373.89
411.883	376.43
412.256	424.69
412.63	389.13
413.003	315.46
413.376	394.21
413.75	442.47
414.123	323.08
414.496	422.15
414.869	422.15
415.242	424.69
415.615	404.37
415.988	338.32
416.361	399.29
416.734	343.41
417.107	368.81
417.48	378.97
417.853	457.71
418.226	381.51
418.598	419.61
418.971	351.03
419.344	401.83
419.716	452.63
420.089	378.97
420.461	366.27
420.834	358.65
421.206	394.21
421.578	363.73
421.951	386.59
422.323	366.27
422.695	401.83
423.067	384.05
423.439	353.57
423.812	432.31
424.184	335.78
424.556	409.45
424.928	333.24
425.299	343.41
425.671	373.89
426.043	315.46
426.415	447.55
426.787	333.24
427.158	389.13
427.53	353.57
427.902	366.27
428.273	356.11
428.645	368.81
429.016	345.95
429.387	348.49
429.759	335.78
430.13	330.7
430.501	427.23
430.873	310.38
431.244	315.46
431.615	406.91
431.986	373.89
432.357	244.34
432.728	511.06
433.099	351.03
433.47	396.75
433.841	328.16
434.212	274.82
434.583	345.95
434.953	394.21
435.324	351.03
435.695	447.55
436.065	386.59
436.436	422.15
436.806	358.65
437.177	312.92
437.547	371.35
437.918	371.35
438.288	358.65
438.658	330.7
439.028	368.81
439.399	297.68
439.769	302.76
440.139	371.35
440.509	384.05
440.879	320.54
441.249	340.87
441.619	414.53
441.989	323.08
442.359	338.32
442.728	333.24
443.098	267.2
443.468	358.65
443.838	373.89
444.207	345.95
444.577	404.37
444.946	249.42
445.316	315.46
445.685	353.57
446.055	284.98
446.424	348.49
446.793	414.53
447.163	335.78
447.532	302.76
447.901	300.22
448.27	325.62
448.639	277.36
449.008	310.38
449.377	323.08
449.746	353.57
450.115	279.9
450.484	315.46
450.853	312.92
451.221	318
451.59	373.89
451.959	384.05
452.327	330.7
452.696	277.36
453.065	330.7
453.433	292.6
453.801	323.08
454.17	470.42
454.538	269.74
454.907	292.6
455.275	282.44
455.643	338.32
456.011	391.67
456.379	282.44
456.747	378.97
457.115	302.76
457.483	335.78
457.851	348.49
458.219	333.24
458.587	345.95
458.955	333.24
459.323	315.46
459.69	335.78
460.058	353.57
460.426	325.62
460.793	348.49
461.161	320.54
461.528	290.06
461.896	389.13
462.263	345.95
462.631	351.03
462.998	282.44
463.365	450.09
463.732	345.95
464.1	310.38
464.467	343.41
464.834	302.76
465.201	361.19
465.568	315.46
465.935	262.12
466.302	373.89
466.669	343.41
467.035	267.2
467.402	335.78
467.769	323.08
468.136	333.24
468.502	363.73
468.869	320.54
469.235	340.87
469.602	358.65
469.968	323.08
470.335	368.81
470.701	353.57
471.067	297.68
471.434	330.7
471.8	277.36
472.166	330.7
472.532	348.49
472.898	366.27
473.264	241.8
473.63	315.46
473.996	292.6
474.362	269.74
474.728	366.27
475.094	358.65
475.46	284.98
475.825	292.6
476.191	429.77
476.557	284.98
476.922	391.67
477.288	330.7
477.653	338.32
478.019	411.99
478.384	325.62
478.749	328.16
479.115	307.84
479.48	366.27
479.845	328.16
480.21	315.46
480.576	305.3
480.941	371.35
481.306	381.51
481.671	320.54
482.036	366.27
482.401	269.74
482.765	333.24
483.13	358.65
483.495	348.49
483.86	325.62
484.224	333.24
484.589	343.41
484.954	290.06
485.318	345.95
485.683	300.22
486.047	323.08
486.412	348.49
486.776	373.89
487.14	335.78
487.504	312.92
487.869	282.44
488.233	320.54
488.597	363.73
488.961	345.95
489.325	348.49
489.689	389.13
490.053	328.16
490.417	343.41
490.781	371.35
491.145	330.7
491.508	305.3
491.872	345.95
492.236	318
492.599	389.13
492.963	328.16
493.327	406.91
493.69	381.51
494.054	330.7
494.417	300.22
494.78	361.19
495.144	356.11
495.507	348.49
495.87	323.08
496.233	358.65
496.596	333.24
496.959	335.78
497.322	376.43
497.685	368.81
498.048	310.38
498.411	389.13
498.774	376.43
499.137	335.78
499.5	305.3
499.862	348.49
500.225	386.59
500.588	269.74
500.95	361.19
501.313	279.9
501.675	264.66
502.038	356.11
502.4	399.29
502.762	282.44
503.125	318
503.487	366.27
503.849	371.35
504.211	340.87
504.574	267.2
504.936	274.82
505.298	381.51
505.66	307.84
506.022	338.32
506.383	340.87
506.745	310.38
507.107	307.84
507.469	300.22
507.831	330.7
508.192	333.24
508.554	328.16
508.915	376.43
509.277	307.84
509.638	328.16
510	358.65
510.361	295.14
510.723	305.3
511.084	381.51
511.445	269.74
511.806	320.54
512.167	345.95
512.529	310.38
512.89	318
513.251	414.53
513.612	282.44
513.972	320.54
514.333	404.37
514.694	325.62
515.055	312.92
515.416	414.53
515.776	312.92
516.137	307.84
516.498	376.43
516.858	368.81
517.219	358.65
517.579	323.08
517.94	351.03
518.3	320.54
518.66	340.87
519.021	325.62
519.381	358.65
519.741	338.32
520.101	328.16
520.461	272.28
520.821	274.82
521.181	345.95
521.541	269.74
521.901	284.98
522.261	302.76
522.621	315.46
522.981	361.19
523.34	343.41
523.7	325.62
524.06	348.49
524.419	305.3
524.779	297.68
525.138	302.76
525.498	305.3
525.857	345.95
526.216	325.62
526.576	310.38
526.935	409.45
527.294	406.91
527.653	356.11
528.013	361.19
528.372	439.93
528.731	361.19
529.09	361.19
529.449	320.54
529.807	353.57
530.166	406.91
530.525	399.29
530.884	318
531.243	312.92
531.601	353.57
531.96	345.95
532.318	315.46
532.677	361.19
533.035	338.32
533.394	282.44
533.752	340.87
534.111	406.91
534.469	338.32
534.827	401.83
535.185	363.73
535.543	368.81
535.902	335.78
536.26	310.38
536.618	389.13
536.976	292.6
537.334	325.62
537.691	371.35
538.049	419.61
538.407	295.14
538.765	307.84
539.122	325.62
539.48	389.13
539.838	340.87
540.195	284.98
540.553	401.83
540.91	310.38
541.268	325.62
541.625	262.12
541.982	371.35
542.34	318
542.697	312.92
543.054	234.18
543.411	262.12
543.768	358.65
544.125	239.26
544.482	312.92
544.839	356.11
545.196	358.65
545.553	315.46
545.91	338.32
546.267	292.6
546.623	315.46
546.98	310.38
547.337	249.42
547.693	356.11
548.05	333.24
548.406	315.46
548.763	414.53
549.119	343.41
549.475	279.9
549.832	292.6
550.188	361.19
550.544	272.28
550.9	297.68
551.256	277.36
551.612	287.52
551.968	307.84
552.324	282.44
552.68	290.06
553.036	295.14
553.392	396.75
553.748	300.22
554.104	287.52
554.459	363.73
554.815	325.62
555.17	310.38
555.526	241.8
555.882	351.03
556.237	368.81
556.592	396.75
556.948	384.05
557.303	368.81
557.658	312.92
558.014	391.67
558.369	300.22
558.724	328.16
559.079	356.11
559.434	287.52
559.789	384.05
560.144	287.52
560.499	305.3
560.854	371.35
561.209	356.11
561.563	312.92
561.918	279.9
562.273	376.43
562.627	328.16
562.982	396.75
563.336	323.08
563.691	287.52
564.045	356.11
564.4	305.3
564.754	340.87
565.108	343.41
565.463	284.98
565.817	320.54
566.171	345.95
566.525	378.97
566.879	318
567.233	315.46
567.587	257.04
567.941	330.7
568.295	361.19
568.649	320.54
569.002	371.35
569.356	366.27
569.71	323.08
570.064	323.08
570.417	378.97
570.771	318
571.124	376.43
571.478	384.05
571.831	353.57
572.184	325.62
572.538	356.11
572.891	325.62
573.244	302.76
573.597	333.24
573.95	305.3
574.304	320.54
574.657	396.75
575.01	312.92
575.362	363.73
575.715	386.59
576.068	389.13
576.421	305.3
576.774	343.41
577.126	318
577.479	320.54
577.832	310.38
578.184	361.19
578.537	338.32
578.889	345.95
579.242	358.65
579.594	328.16
579.946	394.21
580.299	305.3
580.651	305.3
581.003	356.11
581.355	305.3
581.707	282.44
582.059	320.54
582.411	335.78
582.763	335.78
583.115	330.7
583.467	302.76
583.819	338.32
584.171	305.3
584.522	295.14
584.874	353.57
585.226	297.68
585.577	320.54
585.929	356.11
586.28	305.3
586.632	297.68
586.983	295.14
587.334	333.24
587.686	284.98
588.037	381.51
588.388	351.03
588.739	356.11
589.09	333.24
589.441	386.59
589.792	318
590.143	292.6
590.494	366.27
590.845	343.41
591.196	315.46
591.547	351.03
591.897	338.32
592.248	325.62
592.599	318
592.949	330.7
593.3	378.97
593.65	366.27
594.001	320.54
594.351	315.46
594.702	282.44
595.052	325.62
595.402	300.22
595.752	378.97
596.102	371.35
596.453	323.08
596.803	371.35
597.153	338.32
597.503	320.54
597.853	373.89
598.202	262.12
598.552	297.68
598.902	335.78
599.252	348.49
599.601	297.68
599.951	312.92
600.301	356.11
600.65	386.59
601	310.38
601.349	391.67
601.699	353.57
602.048	381.51
602.397	376.43
602.747	328.16
603.096	358.65
603.445	338.32
603.794	307.84
604.143	411.99
604.492	325.62
604.841	335.78
605.19	340.87
605.539	371.35
605.888	328.16
606.237	356.11
606.585	335.78
606.934	318
607.283	363.73
607.631	345.95
607.98	320.54
608.328	351.03
608.677	279.9
609.025	348.49
609.374	356.11
609.722	343.41
610.07	348.49
610.418	389.13
610.767	295.14
611.115	361.19
611.463	312.92
611.811	284.98
612.159	351.03
612.507	310.38
612.855	343.41
613.202	348.49
613.55	361.19
613.898	338.32
614.246	328.16
614.593	343.41
614.941	356.11
615.288	323.08
615.636	335.78
615.983	310.38
616.331	328.16
616.678	345.95
617.026	267.2
617.373	351.03
617.72	404.37
618.067	381.51
618.414	315.46
618.761	356.11
619.108	328.16
619.455	333.24
619.802	353.57
620.149	340.87
620.496	366.27
620.843	305.3
621.19	251.96
621.536	328.16
621.883	343.41
622.23	422.15
622.576	279.9
622.923	287.52
623.269	356.11
623.616	277.36
623.962	368.81
624.308	292.6
624.655	315.46
625.001	325.62
625.347	345.95
625.693	366.27
626.039	338.32
626.385	366.27
626.731	356.11
627.077	345.95
627.423	335.78
627.769	376.43
628.115	386.59
628.46	305.3
628.806	310.38
629.152	310.38
629.497	345.95
629.843	340.87
630.189	305.3
630.534	348.49
630.879	348.49
631.225	335.78
631.57	302.76
631.915	284.98
632.261	340.87
632.606	320.54
632.951	345.95
633.296	323.08
633.641	320.54
633.986	312.92
634.331	343.41
634.676	371.35
635.021	353.57
635.365	363.73
635.71	363.73
636.055	343.41
636.4	287.52
636.744	297.68
637.089	312.92
637.433	363.73
637.778	318
638.122	361.19
638.466	325.62
638.811	384.05
639.155	277.36
639.499	340.87
639.843	358.65
640.188	290.06
640.532	302.76
640.876	381.51
641.22	312.92
641.564	305.3
641.908	333.24
642.251	302.76
642.595	302.76
642.939	312.92
643.283	290.06
643.626	363.73
643.97	358.65
644.313	318
644.657	353.57
645	277.36
645.344	251.96
645.687	208.77
646.03	295.14
646.374	297.68
646.717	366.27
647.06	328.16
647.403	328.16
647.746	386.59
648.089	371.35
648.432	284.98
648.775	310.38
649.118	345.95
649.461	351.03
649.804	323.08
650.146	315.46
650.489	323.08
650.832	269.74
651.174	323.08
651.517	318
651.859	396.75
652.202	343.41
652.544	312.92
652.887	297.68
653.229	361.19
653.571	340.87
653.913	348.49
654.256	389.13
654.598	361.19
654.94	312.92
655.282	312.92
655.624	345.95
655.966	300.22
656.308	318
656.649	358.65
656.991	389.13
657.333	290.06
657.675	343.41
658.016	330.7
658.358	330.7
658.699	335.78
659.041	297.68
659.382	267.2
659.724	282.44
660.065	338.32
660.406	340.87
660.748	351.03
661.089	330.7
661.43	333.24
661.771	315.46
662.112	343.41
662.453	287.52
662.794	287.52
663.135	368.81
663.476	310.38
663.817	287.52
664.157	340.87
664.498	356.11
664.839	325.62
665.179	368.81
665.52	295.14
665.86	292.6
666.201	335.78
666.541	356.11
666.882	406.91
667.222	315.46
667.562	343.41
667.903	295.14
668.243	279.9
668.583	366.27
668.923	290.06
669.263	287.52
669.603	401.83
669.943	338.32
670.283	381.51
670.623	389.13
670.963	366.27
671.302	333.24
671.642	305.3
671.982	328.16
672.321	330.7
672.661	284.98
673	312.92
673.34	315.46
673.679	340.87
674.019	333.24
674.358	345.95
674.697	323.08
675.036	254.5
675.376	312.92
675.715	297.68
676.054	325.62
676.393	267.2
676.732	315.46
677.071	348.49
677.41	315.46
677.748	335.78
678.087	335.78
678.426	340.87
678.765	300.22
679.103	411.99
679.442	381.51
679.78	351.03
680.119	312.92
680.457	216.39
680.796	257.04
681.134	368.81
681.472	302.76
681.811	333.24
682.149	340.87
682.487	366.27
682.825	366.27
683.163	358.65
683.501	333.24
683.839	358.65
684.177	340.87
684.515	401.83
684.853	320.54
685.191	282.44
685.528	300.22
685.866	287.52
686.204	297.68
686.541	399.29
686.879	394.21
687.216	384.05
687.554	330.7
687.891	274.82
688.228	376.43
688.566	409.45
688.903	348.49
689.24	318
689.577	335.78
689.914	274.82
690.251	305.3
690.588	376.43
690.925	315.46
691.262	351.03
691.599	305.3
691.936	320.54
692.273	356.11
692.609	361.19
692.946	373.89
693.282	335.78
693.619	348.49
693.956	315.46
694.292	297.68
694.628	368.81
694.965	305.3
695.301	315.46
695.637	345.95
695.974	376.43
696.31	320.54
696.646	351.03
696.982	310.38
697.318	351.03
697.654	330.7
697.99	343.41
698.326	302.76
698.662	368.81
698.997	272.28
699.333	358.65
699.669	328.16
700.004	348.49
700.34	340.87
700.675	343.41
701.011	345.95
701.346	305.3
701.682	259.58
702.017	394.21
702.352	363.73
702.688	279.9
703.023	279.9
703.358	363.73
703.693	318
704.028	277.36
704.363	358.65
704.698	272.28
705.033	302.76
705.368	300.22
705.703	310.38
706.037	295.14
706.372	302.76
706.707	338.32
707.041	241.8
707.376	297.68
707.71	356.11
708.045	307.84
708.379	351.03
708.714	348.49
709.048	208.77
709.382	345.95
709.716	335.78
710.051	323.08
710.385	290.06
710.719	292.6
711.053	325.62
711.387	345.95
711.721	287.52
712.055	307.84
712.388	338.32
712.722	356.11
713.056	381.51
713.39	345.95
713.723	361.19
714.057	305.3
714.39	295.14
714.724	338.32
715.057	320.54
715.391	378.97
715.724	284.98
716.057	340.87
716.39	366.27
716.724	297.68
717.057	340.87
717.39	330.7
717.723	348.49
718.056	417.07
718.389	315.46
718.722	328.16
719.055	378.97
719.387	300.22
719.72	269.74
720.053	269.74
720.385	305.3
720.718	330.7
721.051	378.97
721.383	338.32
721.716	323.08
722.048	305.3
722.38	287.52
722.713	340.87
723.045	320.54
723.377	353.57
723.709	340.87
724.041	320.54
724.373	333.24
724.705	287.52
725.037	302.76
725.369	409.45
725.701	318
726.033	323.08
726.365	381.51
726.696	358.65
727.028	366.27
727.36	325.62
727.691	297.68
728.023	414.53
728.354	274.82
728.686	300.22
729.017	361.19
729.348	351.03
729.68	272.28
730.011	381.51
730.342	348.49
730.673	307.84
731.004	302.76
731.335	333.24
731.666	323.08
731.997	396.75
732.328	371.35
732.659	328.16
732.99	343.41
733.32	343.41
733.651	345.95
733.982	312.92
734.312	467.88
734.643	328.16
734.973	384.05
735.304	386.59
735.634	343.41
735.965	284.98
736.295	320.54
736.625	338.32
736.955	279.9
737.285	384.05
737.616	315.46
737.946	328.16
738.276	320.54
738.605	318
738.935	318
739.265	274.82
739.595	381.51
739.925	277.36
740.254	335.78
740.584	320.54
740.914	310.38
741.243	343.41
741.573	335.78
741.902	391.67
742.232	312.92
742.561	353.57
742.89	287.52
743.22	356.11
743.549	307.84
743.878	318
744.207	348.49
744.536	351.03
744.865	340.87
745.194	356.11
745.523	320.54
745.852	249.42
746.181	343.41
746.509	348.49
746.838	345.95
747.167	262.12
747.495	323.08
747.824	292.6
748.152	315.46
748.481	264.66
748.809	307.84
749.138	312.92
749.466	363.73
749.794	295.14
750.122	356.11
750.451	366.27
750.779	429.77
751.107	343.41
751.435	310.38
751.763	325.62
752.091	284.98
752.419	330.7
752.746	343.41
753.074	302.76
753.402	335.78
753.73	366.27
754.057	348.49
754.385	292.6
754.712	358.65
755.04	417.07
755.367	305.3
755.695	335.78
756.022	338.32
756.349	335.78
756.676	284.98
757.004	330.7
757.331	335.78
757.658	315.46
757.985	269.74
758.312	345.95
758.639	368.81
758.966	310.38
759.292	295.14
759.619	323.08
759.946	376.43
760.273	305.3
760.599	328.16
760.926	284.98
761.252	277.36
761.579	356.11
761.905	351.03
762.232	340.87
762.558	335.78
762.884	411.99
763.21	361.19
763.537	292.6
763.863	363.73
764.189	315.46
764.515	353.57
764.841	343.41
765.167	343.41
765.493	282.44
765.818	340.87
766.144	292.6
766.47	343.41
766.796	307.84
767.121	348.49
767.447	373.89
767.772	328.16
768.098	404.37
768.423	330.7
768.749	411.99
769.074	368.81
769.399	386.59
769.725	323.08
770.05	302.76
770.375	333.24
770.7	335.78
771.025	361.19
771.35	328.16
771.675	333.24
772	323.08
772.325	345.95
772.649	272.28
772.974	371.35
773.299	353.57
773.624	282.44
773.948	325.62
774.273	318
774.597	323.08
774.922	292.6
775.246	338.32
775.57	269.74
775.895	356.11
776.219	307.84
776.543	338.32
776.867	381.51
777.191	368.81
777.515	325.62
777.839	244.34
778.163	300.22
778.487	236.72
778.811	335.78
779.135	310.38
779.458	290.06
779.782	333.24
780.106	320.54
780.429	356.11
780.753	384.05
781.076	297.68
781.4	267.2
781.723	302.76
782.047	284.98
782.37	384.05
782.693	381.51
783.016	325.62
783.339	373.89
783.663	345.95
783.986	328.16
784.309	323.08
784.632	391.67
784.954	277.36
785.277	305.3
785.6	320.54
785.923	323.08
786.245	353.57
786.568	295.14
786.891	213.85
787.213	343.41
787.536	267.2
787.858	302.76
788.181	295.14
788.503	320.54
788.825	302.76
789.147	249.42
789.47	287.52
789.792	340.87
790.114	262.12
790.436	323.08
790.758	348.49
791.08	279.9
791.402	302.76
791.724	378.97
792.045	404.37
792.367	295.14
792.689	262.12
793.01	297.68
793.332	295.14
793.653	439.93
793.975	284.98
794.296	292.6
794.618	391.67
794.939	335.78
795.26	295.14
795.582	366.27
795.903	302.76
796.224	236.72
796.545	284.98
796.866	351.03
797.187	259.58
797.508	297.68
797.829	295.14
798.15	310.38
798.471	323.08
798.791	373.89
799.112	300.22
799.433	356.11
799.753	328.16
800.074	338.32
800.394	333.24
800.715	378.97
801.035	340.87
801.355	386.59
801.676	417.07
801.996	312.92
802.316	376.43
802.636	348.49
802.956	345.95
803.276	290.06
803.596	333.24
803.916	279.9
804.236	264.66
804.556	300.22
804.876	297.68
805.195	272.28
805.515	318
805.835	417.07
806.154	373.89
806.474	345.95
806.793	328.16
807.113	254.5
807.432	325.62
807.751	353.57
808.071	315.46
808.39	325.62
808.709	340.87
809.028	411.99
809.347	333.24
809.666	340.87
809.985	295.14
810.304	307.84
810.623	297.68
810.942	348.49
811.261	287.52
811.579	340.87
811.898	295.14
812.217	376.43
812.535	284.98
812.854	371.35
813.172	333.24
813.491	330.7
813.809	401.83
814.127	356.11
814.446	333.24
814.764	226.56
815.082	302.76
815.4	292.6
815.718	229.1
816.036	318
816.354	325.62
816.672	312.92
816.99	287.52
817.308	328.16
817.625	305.3
817.943	300.22
818.261	302.76
818.578	325.62
818.896	320.54
819.213	300.22
819.531	338.32
819.848	328.16
820.166	335.78
820.483	378.97
820.8	302.76
821.117	315.46
821.435	371.35
821.752	356.11
822.069	335.78
822.386	302.76
822.703	325.62
823.02	328.16
823.336	284.98
823.653	259.58
823.97	272.28
824.287	259.58
824.603	295.14
824.92	295.14
825.236	389.13
825.553	333.24
825.869	353.57
826.186	381.51
826.502	340.87
826.818	345.95
827.135	328.16
827.451	343.41
827.767	307.84
828.083	404.37
828.399	386.59
828.715	295.14
829.031	333.24
829.347	320.54
829.663	302.76
829.979	351.03
830.294	315.46
830.61	389.13
830.926	246.88
831.241	297.68
831.557	389.13
831.872	356.11
832.188	315.46
832.503	396.75
832.818	284.98
833.134	295.14
833.449	411.99
833.764	356.11
834.079	345.95
834.394	330.7
834.709	300.22
835.024	358.65
835.339	274.82
835.654	351.03
835.969	312.92
836.284	328.16
836.598	345.95
836.913	279.9
837.228	338.32
837.542	338.32
837.857	406.91
838.171	411.99
838.485	323.08
838.8	351.03
839.114	340.87
839.428	351.03
839.743	312.92
840.057	282.44
840.371	318
840.685	384.05
840.999	353.57
841.313	363.73
841.627	297.68
841.941	340.87
842.254	287.52
842.568	343.41
842.882	267.2
843.196	320.54
843.509	348.49
843.823	320.54
844.136	373.89
844.45	340.87
844.763	277.36
845.076	305.3
845.39	338.32
845.703	287.52
846.016	312.92
846.329	351.03
846.642	361.19
846.955	310.38
847.268	274.82
847.581	343.41
847.894	282.44
848.207	378.97
848.52	318
848.832	391.67
849.145	267.2
849.458	297.68
849.77	345.95
850.083	305.3
850.395	287.52
850.708	315.46
851.02	300.22
851.332	376.43
851.645	356.11
851.957	315.46
852.269	305.3
852.581	302.76
852.893	284.98
853.205	254.5
853.517	274.82
853.829	340.87
854.141	307.84
854.453	371.35
854.765	320.54
855.076	300.22
855.388	328.16
855.7	371.35
856.011	302.76
856.323	272.28
856.634	307.84
856.945	330.7
857.257	414.53
857.568	323.08
857.879	267.2
858.191	320.54
858.502	414.53
858.813	328.16
859.124	312.92
859.435	366.27
859.746	302.76
860.057	373.89
860.368	345.95
860.678	338.32
860.989	340.87
861.3	338.32
861.61	312.92
861.921	325.62
862.231	356.11
862.542	292.6
862.852	381.51
863.163	358.65
863.473	345.95
863.783	279.9
864.094	343.41
864.404	318
864.714	335.78
865.024	259.58
865.334	353.57
865.644	363.73
865.954	290.06
866.264	315.46
866.573	246.88
866.883	292.6
867.193	282.44
867.503	307.84
867.812	340.87
868.122	320.54
868.431	358.65
868.741	307.84
869.05	310.38
869.359	333.24
869.669	297.68
869.978	330.7
870.287	335.78
870.596	333.24
870.905	328.16
871.214	279.9
871.523	307.84
871.832	391.67
872.141	328.16
872.45	325.62
872.759	363.73
873.068	325.62
873.376	257.04
873.685	279.9
873.993	325.62
874.302	333.24
874.61	320.54
874.919	361.19
875.227	282.44
875.536	345.95
875.844	394.21
876.152	338.32
876.46	272.28
876.768	262.12
877.076	325.62
877.384	267.2
877.692	345.95
878	368.81
878.308	318
878.616	335.78
878.924	335.78
879.231	330.7
879.539	320.54
879.847	269.74
880.154	310.38
880.462	371.35
880.769	312.92
881.077	318
881.384	343.41
881.691	307.84
881.998	353.57
882.306	470.42
882.613	279.9
882.92	297.68
883.227	335.78
883.534	333.24
883.841	310.38
884.148	267.2
884.454	213.85
884.761	310.38
885.068	333.24
885.375	353.57
885.681	340.87
885.988	295.14
886.294	368.81
886.601	338.32
886.907	312.92
887.213	312.92
887.52	351.03
887.826	305.3
888.132	340.87
888.438	307.84
888.745	307.84
889.051	287.52
889.357	305.3
889.662	419.61
889.968	300.22
890.274	330.7
890.58	315.46
890.886	249.42
891.191	366.27
891.497	353.57
891.803	318
892.108	305.3
892.414	302.76
892.719	315.46
893.024	297.68
893.33	295.14
893.635	315.46
893.94	338.32
894.245	305.3
894.551	295.14
894.856	340.87
895.161	264.66
895.466	320.54
895.771	234.18
896.075	320.54
896.38	333.24
896.685	345.95
896.99	338.32
897.294	320.54
897.599	292.6
897.903	338.32
898.208	244.34
898.512	406.91
898.817	292.6
899.121	272.28
899.425	340.87
899.73	361.19
900.034	295.14
900.338	323.08
900.642	302.76
900.946	343.41
901.25	272.28
901.554	295.14
901.858	272.28
902.162	297.68
902.465	328.16
902.769	368.81
903.073	259.58
903.376	282.44
903.68	305.3
903.983	371.35
904.287	315.46
904.59	292.6
904.894	328.16
905.197	325.62
905.5	307.84
905.803	315.46
906.107	328.16
906.41	401.83
906.713	376.43
907.016	290.06
907.319	361.19
907.621	254.5
907.924	302.76
908.227	325.62
908.53	292.6
908.832	358.65
909.135	320.54
909.438	358.65
909.74	386.59
910.043	216.39
910.345	290.06
910.647	302.76
910.95	386.59
911.252	295.14
911.554	315.46
911.856	282.44
912.158	277.36
912.461	269.74
912.763	259.58
913.064	376.43
913.366	343.41
913.668	335.78
913.97	373.89
914.272	353.57
914.573	310.38
914.875	287.52
915.177	305.3
915.478	318
915.78	389.13
916.081	318
916.382	269.74
916.684	254.5
916.985	335.78
917.286	356.11
917.587	361.19
917.888	318
918.19	325.62
918.491	345.95
918.792	371.35
919.092	307.84
919.393	361.19
919.694	259.58
919.995	330.7
920.295	297.68
920.596	335.78
920.897	292.6
921.197	297.68
921.498	338.32
921.798	345.95
922.099	295.14
922.399	333.24
922.699	391.67
922.999	325.62
923.3	320.54
923.6	330.7
923.9	419.61
924.2	318
924.5	330.7
924.8	272.28
925.099	318
925.399	295.14
925.699	330.7
925.999	307.84
926.298	292.6
926.598	305.3
926.898	335.78
927.197	338.32
927.496	290.06
927.796	323.08
928.095	361.19
928.394	315.46
928.694	320.54
928.993	368.81
929.292	318
929.591	241.8
929.89	340.87
930.189	343.41
930.488	351.03
930.787	345.95
931.086	312.92
931.384	429.77
931.683	312.92
931.982	297.68
932.28	279.9
932.579	353.57
932.877	345.95
933.176	318
933.474	351.03
933.773	226.56
934.071	338.32
934.369	284.98
934.667	295.14
934.965	267.2
935.263	381.51
935.561	315.46
935.859	300.22
936.157	310.38
936.455	315.46
936.753	287.52
937.051	351.03
937.348	307.84
937.646	302.76
937.944	315.46
938.241	356.11
938.539	297.68
938.836	335.78
939.134	343.41
939.431	340.87
939.728	356.11
940.025	340.87
940.323	330.7
940.62	343.41
940.917	257.04
941.214	351.03
941.511	333.24
941.808	307.84
942.105	302.76
942.401	325.62
942.698	251.96
942.995	343.41
943.292	325.62
943.588	384.05
943.885	269.74
944.181	338.32
944.478	358.65
944.774	351.03
945.07	297.68
945.367	312.92
945.663	295.14
945.959	325.62
946.255	323.08
946.551	310.38
946.847	373.89
947.143	345.95
947.439	325.62
947.735	343.41
948.031	323.08
948.327	272.28
948.622	279.9
948.918	274.82
949.214	358.65
949.509	394.21
949.805	312.92
950.1	292.6
950.395	320.54
950.691	330.7
950.986	348.49
951.281	272.28
951.576	363.73
951.872	318
952.167	348.49
952.462	320.54
952.757	323.08
953.052	338.32
953.346	264.66
953.641	325.62
953.936	307.84
954.231	363.73
954.525	356.11
954.82	274.82
955.115	310.38
955.409	356.11
955.703	297.68
955.998	310.38
956.292	315.46
956.586	318
956.881	249.42
957.175	310.38
957.469	246.88
957.763	290.06
958.057	330.7
958.351	404.37
958.645	277.36
958.939	300.22
959.233	297.68
959.526	312.92
959.82	338.32
960.114	315.46
960.407	353.57
960.701	356.11
960.994	353.57
961.288	300.22
961.581	290.06
961.874	384.05
962.168	290.06
962.461	323.08
962.754	292.6
963.047	302.76
963.34	312.92
963.633	307.84
963.926	394.21
964.219	333.24
964.512	323.08
964.805	277.36
965.098	406.91
965.39	323.08
965.683	338.32
965.975	307.84
966.268	366.27
966.56	330.7
966.853	312.92
967.145	361.19
967.438	345.95
967.73	279.9
968.022	307.84
968.314	272.28
968.606	272.28
968.898	310.38
969.19	363.73
969.482	300.22
969.774	251.96
970.066	246.88
970.358	251.96
970.65	323.08
970.941	307.84
971.233	246.88
971.525	335.78
971.816	282.44
972.108	302.76
972.399	330.7
972.69	315.46
972.982	305.3
973.273	328.16
973.564	307.84
973.855	328.16
974.146	361.19
974.437	305.3
974.728	396.75
975.019	381.51
975.31	356.11
975.601	272.28
975.892	290.06
976.183	330.7
976.473	328.16
976.764	320.54
977.054	231.64
977.345	312.92
977.635	368.81
977.926	325.62
978.216	277.36
978.506	328.16
978.797	328.16
979.087	356.11
979.377	284.98
979.667	284.98
979.957	351.03
980.247	290.06
980.537	386.59
980.827	340.87
981.117	381.51
981.407	353.57
981.696	343.41
981.986	345.95
982.276	343.41
982.565	267.2
982.855	287.52
983.144	282.44
983.433	361.19
983.723	338.32
984.012	335.78
984.301	366.27
984.59	257.04
984.88	414.53
985.169	351.03
985.458	330.7
985.747	290.06
986.036	300.22
986.324	348.49
986.613	297.68
986.902	343.41
987.191	312.92
987.479	394.21
987.768	325.62
988.056	340.87
988.345	277.36
988.633	353.57
988.922	328.16
989.21	310.38
989.498	384.05
989.787	345.95
990.075	312.92
990.363	315.46
990.651	328.16
990.939	262.12
991.227	264.66
991.515	318
991.803	305.3
992.09	320.54
992.378	262.12
992.666	335.78
992.953	305.3
993.241	290.06
993.529	368.81
993.816	338.32
994.103	325.62
994.391	340.87
994.678	287.52
994.965	315.46
995.253	295.14
995.54	356.11
995.827	302.76
996.114	290.06
996.401	259.58
996.688	325.62
996.975	401.83
997.262	343.41
997.548	292.6
997.835	353.57
998.122	356.11
998.408	318
998.695	338.32
998.981	373.89
999.268	277.36
999.554	330.7
999.841	320.54
1000.127	340.87
1000.413	318
1000.699	345.95
1000.985	343.41
1001.271	292.6
1001.558	267.2
1001.843	340.87
1002.129	325.62
1002.415	236.72
1002.701	318
1002.987	274.82
1003.273	373.89
1003.558	320.54
1003.844	335.78
1004.129	351.03
1004.415	305.3
1004.7	297.68
1004.986	348.49
1005.271	356.11
1005.556	373.89
1005.841	366.27
1006.127	330.7
1006.412	254.5
1006.697	274.82
1006.982	307.84
1007.267	300.22
1007.552	267.2
1007.836	300.22
1008.121	279.9
1008.406	264.66
1008.691	312.92
1008.975	284.98
1009.26	445.01
1009.544	307.84
1009.829	295.14
1010.113	312.92
1010.398	249.42
1010.682	318
1010.966	340.87
1011.25	264.66
1011.535	323.08
1011.819	307.84
1012.103	259.58
1012.387	348.49
1012.671	305.3
1012.954	302.76
1013.238	264.66
1013.522	297.68
1013.806	361.19
1014.089	325.62
1014.373	384.05
1014.657	320.54
1014.94	381.51
1015.223	318
1015.507	345.95
1015.79	226.56
1016.073	333.24
1016.357	272.28
1016.64	295.14
1016.923	300.22
1017.206	320.54
1017.489	368.81
1017.772	307.84
1018.055	366.27
1018.338	338.32
1018.621	246.88
1018.903	391.67
1019.186	361.19
1019.469	310.38
1019.751	300.22
1020.034	351.03
1020.316	343.41
1020.599	368.81
1020.881	302.76
1021.163	277.36
1021.446	358.65
1021.728	348.49
1022.01	348.49
1022.292	348.49
