Data from solis365c_3750mA_black_FLMS192441__1__16-13-33-650.txt Node

Date: Tue Sep 13 16:13:33 CEST 2022
User: Spectrometer
Spectrometer: FLMS19244
Trigger mode: 0
Integration Time (sec): 1.000000E-1
Scans to average: 1
Electric dark correction enabled: true
Nonlinearity correction enabled: false
Boxcar width: 0
XAxis mode: Wavelengths
Number of Pixels in Spectrum: 2048
>>>>>Begin Spectral Data<<<<<
338.974	-23.5
339.356	-23.5
339.738	-23.5
340.12	-66.68
340.502	-79.38
340.883	-36.2
341.265	-112.4
341.647	-97.16
342.029	-79.38
342.41	-48.9
342.792	-53.98
343.173	-5.72
343.555	-48.9
343.936	-28.58
344.318	-43.82
344.699	34.93
345.08	62.87
345.462	98.43
345.843	128.92
346.224	106.05
346.605	123.84
346.986	88.27
347.368	121.3
347.749	222.9
348.13	123.84
348.51	276.25
348.891	167.02
349.272	197.5
349.653	227.98
350.034	261.01
350.414	210.2
350.795	215.28
351.176	276.25
351.556	261.01
351.937	273.71
352.317	268.63
352.698	357.54
353.078	352.45
353.459	273.71
353.839	253.39
354.219	286.41
354.599	281.33
354.98	268.63
355.36	273.71
355.74	309.27
356.12	337.21
356.5	299.11
356.88	266.09
357.26	329.59
357.64	393.1
358.02	271.17
358.399	337.21
358.779	327.05
359.159	362.62
359.539	268.63
359.918	304.19
360.298	306.73
360.677	291.49
361.057	329.59
361.436	301.65
361.816	278.79
362.195	316.89
362.574	309.27
362.954	230.52
363.333	299.11
363.712	255.93
364.091	296.57
364.47	271.17
364.849	268.63
365.228	261.01
365.607	321.97
365.986	245.77
366.365	268.63
366.744	240.69
367.123	329.59
367.501	273.71
367.88	281.33
368.259	327.05
368.637	258.47
369.016	337.21
369.394	217.82
369.773	319.43
370.151	316.89
370.53	291.49
370.908	205.12
371.286	286.41
371.665	220.36
372.043	393.1
372.421	136.54
372.799	327.05
373.177	301.65
373.555	329.59
373.933	314.35
374.311	291.49
374.689	286.41
375.067	263.55
375.445	220.36
375.823	207.66
376.2	253.39
376.578	332.13
376.956	288.95
377.333	248.31
377.711	301.65
378.088	233.06
378.466	304.19
378.843	347.37
379.22	261.01
379.598	283.87
379.975	283.87
380.352	177.18
380.73	301.65
381.107	360.08
381.484	314.35
381.861	263.55
382.238	316.89
382.615	304.19
382.992	311.81
383.369	334.67
383.746	314.35
384.122	372.78
384.499	283.87
384.876	222.9
385.252	314.35
385.629	360.08
386.006	334.67
386.382	278.79
386.759	349.91
387.135	288.95
387.512	311.81
387.888	263.55
388.264	296.57
388.641	347.37
389.017	271.17
389.393	268.63
389.769	319.43
390.145	362.62
390.521	342.29
390.897	253.39
391.273	311.81
391.649	276.25
392.025	304.19
392.401	294.03
392.777	314.35
393.152	294.03
393.528	291.49
393.904	299.11
394.279	294.03
394.655	319.43
395.03	283.87
395.406	319.43
395.781	337.21
396.157	360.08
396.532	352.45
396.907	329.59
397.283	301.65
397.658	311.81
398.033	342.29
398.408	314.35
398.783	296.57
399.158	309.27
399.533	324.51
399.908	299.11
400.283	294.03
400.658	332.13
401.033	357.54
401.407	375.32
401.782	261.01
402.157	309.27
402.531	304.19
402.906	245.77
403.28	299.11
403.655	319.43
404.029	332.13
404.404	339.75
404.778	245.77
405.153	281.33
405.527	306.73
405.901	334.67
406.275	296.57
406.649	291.49
407.023	370.24
407.397	286.41
407.771	253.39
408.145	342.29
408.519	299.11
408.893	332.13
409.267	291.49
409.641	324.51
410.015	334.67
410.388	321.97
410.762	344.83
411.136	288.95
411.509	395.64
411.883	288.95
412.256	339.75
412.63	263.55
413.003	281.33
413.376	304.19
413.75	281.33
414.123	316.89
414.496	268.63
414.869	329.59
415.242	288.95
415.615	263.55
415.988	362.62
416.361	306.73
416.734	261.01
417.107	291.49
417.48	253.39
417.853	349.91
418.226	240.69
418.598	314.35
418.971	294.03
419.344	309.27
419.716	291.49
420.089	390.56
420.461	283.87
420.834	304.19
421.206	255.93
421.578	197.5
421.951	271.17
422.323	360.08
422.695	207.66
423.067	357.54
423.439	352.45
423.812	360.08
424.184	316.89
424.556	321.97
424.928	271.17
425.299	344.83
425.671	286.41
426.043	327.05
426.415	304.19
426.787	365.16
427.158	309.27
427.53	286.41
427.902	291.49
428.273	248.31
428.645	299.11
429.016	372.78
429.387	311.81
429.759	349.91
430.13	271.17
430.501	240.69
430.873	304.19
431.244	238.15
431.615	296.57
431.986	355
432.357	314.35
432.728	456.6
433.099	245.77
433.47	337.21
433.841	360.08
434.212	309.27
434.583	283.87
434.953	266.09
435.324	342.29
435.695	337.21
436.065	250.85
436.436	253.39
436.806	271.17
437.177	283.87
437.547	306.73
437.918	304.19
438.288	344.83
438.658	253.39
439.028	288.95
439.399	337.21
439.769	238.15
440.139	233.06
440.509	278.79
440.879	266.09
441.249	347.37
441.619	255.93
441.989	217.82
442.359	321.97
442.728	327.05
443.098	311.81
443.468	357.54
443.838	357.54
444.207	360.08
444.577	311.81
444.946	278.79
445.316	301.65
445.685	327.05
446.055	281.33
446.424	324.51
446.793	337.21
447.163	339.75
447.532	286.41
447.901	268.63
448.27	339.75
448.639	342.29
449.008	372.78
449.377	388.02
449.746	311.81
450.115	321.97
450.484	370.24
450.853	263.55
451.221	316.89
451.59	248.31
451.959	365.16
452.327	316.89
452.696	309.27
453.065	352.45
453.433	337.21
453.801	339.75
454.17	347.37
454.538	332.13
454.907	324.51
455.275	255.93
455.643	286.41
456.011	321.97
456.379	273.71
456.747	360.08
457.115	276.25
457.483	321.97
457.851	395.64
458.219	355
458.587	321.97
458.955	261.01
459.323	319.43
459.69	324.51
460.058	355
460.426	334.67
460.793	355
461.161	342.29
461.528	253.39
461.896	324.51
462.263	370.24
462.631	329.59
462.998	349.91
463.365	324.51
463.732	299.11
464.1	291.49
464.467	255.93
464.834	281.33
465.201	288.95
465.568	291.49
465.935	309.27
466.302	316.89
466.669	263.55
467.035	311.81
467.402	268.63
467.769	271.17
468.136	240.69
468.502	349.91
468.869	385.48
469.235	271.17
469.602	294.03
469.968	324.51
470.335	316.89
470.701	238.15
471.067	319.43
471.434	309.27
471.8	324.51
472.166	357.54
472.532	296.57
472.898	296.57
473.264	296.57
473.63	299.11
473.996	337.21
474.362	321.97
474.728	321.97
475.094	316.89
475.46	362.62
475.825	352.45
476.191	324.51
476.557	294.03
476.922	321.97
477.288	385.48
477.653	339.75
478.019	304.19
478.384	319.43
478.749	329.59
479.115	258.47
479.48	291.49
479.845	390.56
480.21	250.85
480.576	311.81
480.941	347.37
481.306	324.51
481.671	311.81
482.036	334.67
482.401	299.11
482.765	367.7
483.13	283.87
483.495	304.19
483.86	304.19
484.224	327.05
484.589	382.94
484.954	344.83
485.318	344.83
485.683	288.95
486.047	291.49
486.412	349.91
486.776	222.9
487.14	360.08
487.504	266.09
487.869	304.19
488.233	337.21
488.597	304.19
488.961	281.33
489.325	281.33
489.689	344.83
490.053	296.57
490.417	309.27
490.781	258.47
491.145	365.16
491.508	339.75
491.872	306.73
492.236	255.93
492.599	362.62
492.963	344.83
493.327	306.73
493.69	316.89
494.054	230.52
494.417	319.43
494.78	329.59
495.144	286.41
495.507	311.81
495.87	344.83
496.233	311.81
496.596	327.05
496.959	281.33
497.322	258.47
497.685	375.32
498.048	288.95
498.411	306.73
498.774	370.24
499.137	357.54
499.5	344.83
499.862	321.97
500.225	398.18
500.588	357.54
500.95	276.25
501.313	283.87
501.675	288.95
502.038	332.13
502.4	342.29
502.762	342.29
503.125	309.27
503.487	337.21
503.849	329.59
504.211	299.11
504.574	238.15
504.936	311.81
505.298	306.73
505.66	296.57
506.022	296.57
506.383	332.13
506.745	309.27
507.107	271.17
507.469	377.86
507.831	418.5
508.192	304.19
508.554	367.7
508.915	329.59
509.277	337.21
509.638	382.94
510	319.43
510.361	281.33
510.723	327.05
511.084	225.44
511.445	268.63
511.806	377.86
512.167	375.32
512.529	342.29
512.89	286.41
513.251	393.1
513.612	291.49
513.972	360.08
514.333	400.72
514.694	261.01
515.055	349.91
515.416	360.08
515.776	362.62
516.137	342.29
516.498	253.39
516.858	291.49
517.219	357.54
517.579	370.24
517.94	355
518.3	288.95
518.66	319.43
519.021	321.97
519.381	276.25
519.741	344.83
520.101	245.77
520.461	377.86
520.821	324.51
521.181	291.49
521.541	324.51
521.901	240.69
522.261	286.41
522.621	314.35
522.981	375.32
523.34	283.87
523.7	355
524.06	306.73
524.419	349.91
524.779	233.06
525.138	339.75
525.498	309.27
525.857	311.81
526.216	281.33
526.576	314.35
526.935	271.17
527.294	250.85
527.653	339.75
528.013	360.08
528.372	395.64
528.731	334.67
529.09	288.95
529.449	347.37
529.807	321.97
530.166	258.47
530.525	283.87
530.884	291.49
531.243	296.57
531.601	365.16
531.96	255.93
532.318	360.08
532.677	344.83
533.035	332.13
533.394	375.32
533.752	332.13
534.111	306.73
534.469	370.24
534.827	324.51
535.185	375.32
535.543	319.43
535.902	276.25
536.26	311.81
536.618	319.43
536.976	324.51
537.334	367.7
537.691	321.97
538.049	375.32
538.407	357.54
538.765	253.39
539.122	271.17
539.48	263.55
539.838	339.75
540.195	362.62
540.553	294.03
540.91	309.27
541.268	390.56
541.625	332.13
541.982	380.4
542.34	258.47
542.697	311.81
543.054	266.09
543.411	355
543.768	296.57
544.125	210.2
544.482	324.51
544.839	327.05
545.196	288.95
545.553	327.05
545.91	283.87
546.267	344.83
546.623	291.49
546.98	281.33
547.337	367.7
547.693	360.08
548.05	395.64
548.406	273.71
548.763	344.83
549.119	388.02
549.475	281.33
549.832	344.83
550.188	304.19
550.544	324.51
550.9	261.01
551.256	299.11
551.612	309.27
551.968	299.11
552.324	334.67
552.68	355
553.036	347.37
553.392	306.73
553.748	327.05
554.104	288.95
554.459	370.24
554.815	382.94
555.17	377.86
555.526	316.89
555.882	382.94
556.237	337.21
556.592	319.43
556.948	367.7
557.303	250.85
557.658	385.48
558.014	327.05
558.369	281.33
558.724	311.81
559.079	339.75
559.434	339.75
559.789	306.73
560.144	319.43
560.499	329.59
560.854	271.17
561.209	327.05
561.563	266.09
561.918	281.33
562.273	311.81
562.627	329.59
562.982	342.29
563.336	311.81
563.691	324.51
564.045	324.51
564.4	342.29
564.754	319.43
565.108	339.75
565.463	339.75
565.817	365.16
566.171	304.19
566.525	311.81
566.879	311.81
567.233	276.25
567.587	278.79
567.941	283.87
568.295	253.39
568.649	319.43
569.002	352.45
569.356	281.33
569.71	355
570.064	370.24
570.417	332.13
570.771	283.87
571.124	344.83
571.478	390.56
571.831	291.49
572.184	355
572.538	349.91
572.891	339.75
573.244	306.73
573.597	319.43
573.95	278.79
574.304	266.09
574.657	332.13
575.01	377.86
575.362	306.73
575.715	311.81
576.068	316.89
576.421	324.51
576.774	372.78
577.126	342.29
577.479	349.91
577.832	316.89
578.184	375.32
578.537	344.83
578.889	299.11
579.242	337.21
579.594	311.81
579.946	344.83
580.299	283.87
580.651	306.73
581.003	316.89
581.355	294.03
581.707	314.35
582.059	365.16
582.411	347.37
582.763	382.94
583.115	304.19
583.467	415.96
583.819	355
584.171	316.89
584.522	243.23
584.874	360.08
585.226	329.59
585.577	329.59
585.929	311.81
586.28	278.79
586.632	250.85
586.983	347.37
587.334	321.97
587.686	360.08
588.037	367.7
588.388	258.47
588.739	327.05
589.09	344.83
589.441	337.21
589.792	296.57
590.143	276.25
590.494	321.97
590.845	314.35
591.196	306.73
591.547	321.97
591.897	388.02
592.248	355
592.599	360.08
592.949	301.65
593.3	360.08
593.65	388.02
594.001	324.51
594.351	286.41
594.702	339.75
595.052	357.54
595.402	296.57
595.752	375.32
596.102	337.21
596.453	332.13
596.803	286.41
597.153	291.49
597.503	344.83
597.853	245.77
598.202	288.95
598.552	316.89
598.902	304.19
599.252	314.35
599.601	296.57
599.951	388.02
600.301	276.25
600.65	349.91
601	299.11
601.349	352.45
601.699	291.49
602.048	281.33
602.397	281.33
602.747	316.89
603.096	355
603.445	390.56
603.794	355
604.143	329.59
604.492	377.86
604.841	380.4
605.19	271.17
605.539	263.55
605.888	327.05
606.237	215.28
606.585	367.7
606.934	299.11
607.283	344.83
607.631	347.37
607.98	306.73
608.328	281.33
608.677	362.62
609.025	370.24
609.374	296.57
609.722	266.09
610.07	263.55
610.418	339.75
610.767	352.45
611.115	306.73
611.463	296.57
611.811	360.08
612.159	291.49
612.507	288.95
612.855	235.6
613.202	296.57
613.55	291.49
613.898	309.27
614.246	266.09
614.593	362.62
614.941	357.54
615.288	344.83
615.636	311.81
615.983	311.81
616.331	299.11
616.678	342.29
617.026	339.75
617.373	268.63
617.72	400.72
618.067	342.29
618.414	349.91
618.761	347.37
619.108	321.97
619.455	316.89
619.802	319.43
620.149	342.29
620.496	311.81
620.843	339.75
621.19	357.54
621.536	311.81
621.883	324.51
622.23	324.51
622.576	311.81
622.923	316.89
623.269	415.96
623.616	329.59
623.962	299.11
624.308	436.28
624.655	357.54
625.001	395.64
625.347	276.25
625.693	377.86
626.039	334.67
626.385	332.13
626.731	355
627.077	342.29
627.423	321.97
627.769	324.51
628.115	309.27
628.46	365.16
628.806	278.79
629.152	344.83
629.497	410.88
629.843	306.73
630.189	314.35
630.534	255.93
630.879	324.51
631.225	367.7
631.57	311.81
631.915	314.35
632.261	352.45
632.606	349.91
632.951	337.21
633.296	355
633.641	324.51
633.986	339.75
634.331	276.25
634.676	311.81
635.021	263.55
635.365	355
635.71	357.54
636.055	281.33
636.4	248.31
636.744	339.75
637.089	248.31
637.433	311.81
637.778	324.51
638.122	352.45
638.466	418.5
638.811	337.21
639.155	278.79
639.499	314.35
639.843	309.27
640.188	347.37
640.532	347.37
640.876	372.78
641.22	360.08
641.564	403.26
641.908	255.93
642.251	311.81
642.595	329.59
642.939	357.54
643.283	360.08
643.626	382.94
643.97	288.95
644.313	332.13
644.657	306.73
645	255.93
645.344	288.95
645.687	347.37
646.03	329.59
646.374	347.37
646.717	316.89
647.06	306.73
647.403	321.97
647.746	362.62
648.089	286.41
648.432	286.41
648.775	321.97
649.118	329.59
649.461	421.04
649.804	337.21
650.146	337.21
650.489	283.87
650.832	255.93
651.174	327.05
651.517	291.49
651.859	306.73
652.202	227.98
652.544	301.65
652.887	347.37
653.229	334.67
653.571	301.65
653.913	281.33
654.256	375.32
654.598	291.49
654.94	319.43
655.282	329.59
655.624	263.55
655.966	400.72
656.308	294.03
656.649	352.45
656.991	332.13
657.333	349.91
657.675	342.29
658.016	238.15
658.358	304.19
658.699	314.35
659.041	301.65
659.382	355
659.724	301.65
660.065	304.19
660.406	283.87
660.748	339.75
661.089	263.55
661.43	349.91
661.771	294.03
662.112	263.55
662.453	327.05
662.794	268.63
663.135	311.81
663.476	314.35
663.817	288.95
664.157	362.62
664.498	296.57
664.839	349.91
665.179	314.35
665.52	327.05
665.86	390.56
666.201	332.13
666.541	347.37
666.882	426.12
667.222	372.78
667.562	393.1
667.903	273.71
668.243	296.57
668.583	273.71
668.923	278.79
669.263	349.91
669.603	365.16
669.943	372.78
670.283	319.43
670.623	321.97
670.963	316.89
671.302	355
671.642	324.51
671.982	357.54
672.321	324.51
672.661	281.33
673	314.35
673.34	415.96
673.679	382.94
674.019	304.19
674.358	288.95
674.697	294.03
675.036	288.95
675.376	314.35
675.715	339.75
676.054	240.69
676.393	299.11
676.732	261.01
677.071	344.83
677.41	316.89
677.748	385.48
678.087	352.45
678.426	349.91
678.765	370.24
679.103	393.1
679.442	314.35
679.78	304.19
680.119	291.49
680.457	388.02
680.796	334.67
681.134	375.32
681.472	324.51
681.811	370.24
682.149	281.33
682.487	339.75
682.825	268.63
683.163	299.11
683.501	367.7
683.839	349.91
684.177	357.54
684.515	342.29
684.853	271.17
685.191	321.97
685.528	362.62
685.866	291.49
686.204	309.27
686.541	355
686.879	319.43
687.216	329.59
687.554	355
687.891	327.05
688.228	395.64
688.566	352.45
688.903	327.05
689.24	339.75
689.577	342.29
689.914	278.79
690.251	304.19
690.588	327.05
690.925	403.26
691.262	253.39
691.599	321.97
691.936	349.91
692.273	327.05
692.609	339.75
692.946	294.03
693.282	294.03
693.619	327.05
693.956	362.62
694.292	306.73
694.628	273.71
694.965	314.35
695.301	281.33
695.637	288.95
695.974	321.97
696.31	304.19
696.646	349.91
696.982	294.03
697.318	352.45
697.654	339.75
697.99	299.11
698.326	266.09
698.662	355
698.997	319.43
699.333	306.73
699.669	357.54
700.004	316.89
700.34	319.43
700.675	337.21
701.011	362.62
701.346	342.29
701.682	316.89
702.017	357.54
702.352	301.65
702.688	309.27
703.023	299.11
703.358	271.17
703.693	311.81
704.028	355
704.363	301.65
704.698	342.29
705.033	314.35
705.368	299.11
705.703	248.31
706.037	309.27
706.372	273.71
706.707	375.32
707.041	367.7
707.376	413.42
707.71	271.17
708.045	304.19
708.379	278.79
708.714	296.57
709.048	324.51
709.382	319.43
709.716	283.87
710.051	311.81
710.385	271.17
710.719	314.35
711.053	286.41
711.387	390.56
711.721	324.51
712.055	324.51
712.388	314.35
712.722	357.54
713.056	306.73
713.39	258.47
713.723	329.59
714.057	329.59
714.39	311.81
714.724	321.97
715.057	342.29
715.391	347.37
715.724	388.02
716.057	380.4
716.39	395.64
716.724	253.39
717.057	337.21
717.39	301.65
717.723	316.89
718.056	263.55
718.389	258.47
718.722	337.21
719.055	263.55
719.387	286.41
719.72	360.08
720.053	296.57
720.385	347.37
720.718	288.95
721.051	301.65
721.383	352.45
721.716	337.21
722.048	306.73
722.38	306.73
722.713	390.56
723.045	288.95
723.377	327.05
723.709	367.7
724.041	388.02
724.373	362.62
724.705	321.97
725.037	327.05
725.369	327.05
725.701	276.25
726.033	304.19
726.365	304.19
726.696	301.65
727.028	321.97
727.36	357.54
727.691	365.16
728.023	344.83
728.354	339.75
728.686	319.43
729.017	301.65
729.348	339.75
729.68	268.63
730.011	372.78
730.342	342.29
730.673	344.83
731.004	321.97
731.335	281.33
731.666	309.27
731.997	319.43
732.328	324.51
732.659	380.4
732.99	319.43
733.32	276.25
733.651	347.37
733.982	268.63
734.312	301.65
734.643	316.89
734.973	271.17
735.304	301.65
735.634	342.29
735.965	309.27
736.295	281.33
736.625	324.51
736.955	344.83
737.285	294.03
737.616	296.57
737.946	248.31
738.276	344.83
738.605	355
738.935	339.75
739.265	306.73
739.595	261.01
739.925	334.67
740.254	304.19
740.584	306.73
740.914	291.49
741.243	304.19
741.573	360.08
741.902	314.35
742.232	347.37
742.561	385.48
742.89	349.91
743.22	347.37
743.549	314.35
743.878	342.29
744.207	227.98
744.536	332.13
744.865	316.89
745.194	339.75
745.523	344.83
745.852	408.34
746.181	283.87
746.509	327.05
746.838	311.81
747.167	309.27
747.495	357.54
747.824	400.72
748.152	332.13
748.481	324.51
748.809	352.45
749.138	342.29
749.466	337.21
749.794	319.43
750.122	309.27
750.451	324.51
750.779	314.35
751.107	286.41
751.435	311.81
751.763	352.45
752.091	329.59
752.419	253.39
752.746	250.85
753.074	334.67
753.402	309.27
753.73	306.73
754.057	319.43
754.385	299.11
754.712	324.51
755.04	367.7
755.367	276.25
755.695	337.21
756.022	357.54
756.349	263.55
756.676	357.54
757.004	306.73
757.331	286.41
757.658	327.05
757.985	360.08
758.312	311.81
758.639	311.81
758.966	352.45
759.292	362.62
759.619	291.49
759.946	294.03
760.273	299.11
760.599	238.15
760.926	268.63
761.252	309.27
761.579	304.19
761.905	296.57
762.232	291.49
762.558	281.33
762.884	286.41
763.21	314.35
763.537	327.05
763.863	334.67
764.189	334.67
764.515	388.02
764.841	324.51
765.167	342.29
765.493	319.43
765.818	299.11
766.144	306.73
766.47	344.83
766.796	304.19
767.121	372.78
767.447	327.05
767.772	255.93
768.098	278.79
768.423	304.19
768.749	299.11
769.074	271.17
769.399	337.21
769.725	301.65
770.05	405.8
770.375	230.52
770.7	268.63
771.025	388.02
771.35	294.03
771.675	304.19
772	253.39
772.325	352.45
772.649	403.26
772.974	349.91
773.299	339.75
773.624	421.04
773.948	288.95
774.273	370.24
774.597	276.25
774.922	327.05
775.246	337.21
775.57	327.05
775.895	372.78
776.219	306.73
776.543	215.28
776.867	296.57
777.191	271.17
777.515	238.15
777.839	296.57
778.163	327.05
778.487	281.33
778.811	390.56
779.135	337.21
779.458	321.97
779.782	321.97
780.106	319.43
780.429	388.02
780.753	235.6
781.076	324.51
781.4	283.87
781.723	332.13
782.047	332.13
782.37	382.94
782.693	283.87
783.016	258.47
783.339	375.32
783.663	334.67
783.986	248.31
784.309	278.79
784.632	281.33
784.954	355
785.277	339.75
785.6	327.05
785.923	321.97
786.245	355
786.568	253.39
786.891	327.05
787.213	372.78
787.536	258.47
787.858	349.91
788.181	248.31
788.503	255.93
788.825	268.63
789.147	332.13
789.47	291.49
789.792	291.49
790.114	347.37
790.436	301.65
790.758	304.19
791.08	294.03
791.402	339.75
791.724	311.81
792.045	329.59
792.367	304.19
792.689	339.75
793.01	311.81
793.332	339.75
793.653	377.86
793.975	329.59
794.296	372.78
794.618	319.43
794.939	321.97
795.26	367.7
795.582	332.13
795.903	324.51
796.224	337.21
796.545	319.43
796.866	266.09
797.187	268.63
797.508	334.67
797.829	403.26
798.15	327.05
798.471	327.05
798.791	342.29
799.112	360.08
799.433	309.27
799.753	316.89
800.074	296.57
800.394	319.43
800.715	332.13
801.035	367.7
801.355	306.73
801.676	230.52
801.996	306.73
802.316	299.11
802.636	266.09
802.956	291.49
803.276	355
803.596	306.73
803.916	245.77
804.236	271.17
804.556	309.27
804.876	309.27
805.195	281.33
805.515	286.41
805.835	385.48
806.154	271.17
806.474	332.13
806.793	360.08
807.113	281.33
807.432	344.83
807.751	278.79
808.071	263.55
808.39	321.97
808.709	294.03
809.028	304.19
809.347	342.29
809.666	309.27
809.985	309.27
810.304	349.91
810.623	253.39
810.942	278.79
811.261	301.65
811.579	332.13
811.898	342.29
812.217	253.39
812.535	332.13
812.854	299.11
813.172	365.16
813.491	319.43
813.809	410.88
814.127	304.19
814.446	321.97
814.764	243.23
815.082	382.94
815.4	281.33
815.718	349.91
816.036	283.87
816.354	304.19
816.672	329.59
816.99	370.24
817.308	367.7
817.625	339.75
817.943	324.51
818.261	296.57
818.578	281.33
818.896	276.25
819.213	342.29
819.531	334.67
819.848	316.89
820.166	324.51
820.483	316.89
820.8	365.16
821.117	273.71
821.435	286.41
821.752	339.75
822.069	301.65
822.386	324.51
822.703	339.75
823.02	372.78
823.336	342.29
823.653	273.71
823.97	309.27
824.287	337.21
824.603	294.03
824.92	288.95
825.236	334.67
825.553	347.37
825.869	316.89
826.186	339.75
826.502	321.97
826.818	324.51
827.135	332.13
827.451	286.41
827.767	276.25
828.083	314.35
828.399	375.32
828.715	339.75
829.031	291.49
829.347	347.37
829.663	365.16
829.979	294.03
830.294	352.45
830.61	309.27
830.926	367.7
831.241	309.27
831.557	294.03
831.872	294.03
832.188	327.05
832.503	347.37
832.818	311.81
833.134	288.95
833.449	319.43
833.764	296.57
834.079	306.73
834.394	319.43
834.709	327.05
835.024	311.81
835.339	306.73
835.654	321.97
835.969	352.45
836.284	367.7
836.598	360.08
836.913	342.29
837.228	319.43
837.542	339.75
837.857	327.05
838.171	286.41
838.485	309.27
838.8	316.89
839.114	271.17
839.428	347.37
839.743	352.45
840.057	342.29
840.371	362.62
840.685	400.72
840.999	362.62
841.313	304.19
841.627	385.48
841.941	268.63
842.254	271.17
842.568	370.24
842.882	344.83
843.196	243.23
843.509	276.25
843.823	385.48
844.136	352.45
844.45	304.19
844.763	278.79
845.076	311.81
845.39	294.03
845.703	375.32
846.016	288.95
846.329	352.45
846.642	299.11
846.955	334.67
847.268	410.88
847.581	316.89
847.894	324.51
848.207	372.78
848.52	339.75
848.832	347.37
849.145	321.97
849.458	258.47
849.77	248.31
850.083	250.85
850.395	311.81
850.708	304.19
851.02	362.62
851.332	266.09
851.645	329.59
851.957	314.35
852.269	283.87
852.581	329.59
852.893	306.73
853.205	281.33
853.517	288.95
853.829	268.63
854.141	327.05
854.453	342.29
854.765	253.39
855.076	225.44
855.388	332.13
855.7	296.57
856.011	344.83
856.323	334.67
856.634	332.13
856.945	375.32
857.257	357.54
857.568	329.59
857.879	385.48
858.191	278.79
858.502	268.63
858.813	372.78
859.124	306.73
859.435	273.71
859.746	367.7
860.057	311.81
860.368	294.03
860.678	311.81
860.989	288.95
861.3	316.89
861.61	299.11
861.921	314.35
862.231	294.03
862.542	306.73
862.852	357.54
863.163	291.49
863.473	309.27
863.783	344.83
864.094	296.57
864.404	266.09
864.714	283.87
865.024	230.52
865.334	324.51
865.644	332.13
865.954	301.65
866.264	319.43
866.573	390.56
866.883	258.47
867.193	324.51
867.503	390.56
867.812	357.54
868.122	296.57
868.431	337.21
868.741	390.56
869.05	306.73
869.359	301.65
869.669	306.73
869.978	301.65
870.287	332.13
870.596	286.41
870.905	329.59
871.214	291.49
871.523	324.51
871.832	349.91
872.141	276.25
872.45	332.13
872.759	385.48
873.068	329.59
873.376	377.86
873.685	286.41
873.993	268.63
874.302	324.51
874.61	342.29
874.919	286.41
875.227	261.01
875.536	301.65
875.844	324.51
876.152	309.27
876.46	261.01
876.768	380.4
877.076	294.03
877.384	304.19
877.692	296.57
878	385.48
878.308	357.54
878.616	344.83
878.924	339.75
879.231	291.49
879.539	238.15
879.847	291.49
880.154	278.79
880.462	347.37
880.769	334.67
881.077	327.05
881.384	319.43
881.691	332.13
881.998	311.81
882.306	304.19
882.613	296.57
882.92	245.77
883.227	334.67
883.534	370.24
883.841	268.63
884.148	311.81
884.454	311.81
884.761	324.51
885.068	266.09
885.375	306.73
885.681	370.24
885.988	299.11
886.294	299.11
886.601	327.05
886.907	266.09
887.213	291.49
887.52	342.29
887.826	301.65
888.132	271.17
888.438	311.81
888.745	360.08
889.051	309.27
889.357	339.75
889.662	299.11
889.968	263.55
890.274	291.49
890.58	240.69
890.886	301.65
891.191	245.77
891.497	339.75
891.803	349.91
892.108	278.79
892.414	339.75
892.719	362.62
893.024	362.62
893.33	342.29
893.635	372.78
893.94	357.54
894.245	309.27
894.551	309.27
894.856	314.35
895.161	294.03
895.466	296.57
895.771	388.02
896.075	286.41
896.38	314.35
896.685	329.59
896.99	306.73
897.294	327.05
897.599	321.97
897.903	268.63
898.208	377.86
898.512	316.89
898.817	261.01
899.121	344.83
899.425	276.25
899.73	337.21
900.034	286.41
900.338	334.67
900.642	329.59
900.946	367.7
901.25	316.89
901.554	296.57
901.858	288.95
902.162	311.81
902.465	316.89
902.769	347.37
903.073	316.89
903.376	321.97
903.68	314.35
903.983	337.21
904.287	337.21
904.59	362.62
904.894	304.19
905.197	309.27
905.5	347.37
905.803	316.89
906.107	263.55
906.41	329.59
906.713	357.54
907.016	357.54
907.319	271.17
907.621	304.19
907.924	316.89
908.227	220.36
908.53	362.62
908.832	268.63
909.135	304.19
909.438	362.62
909.74	309.27
910.043	248.31
910.345	296.57
910.647	304.19
910.95	380.4
911.252	250.85
911.554	316.89
911.856	352.45
912.158	349.91
912.461	367.7
912.763	288.95
913.064	281.33
913.366	273.71
913.668	296.57
913.97	327.05
914.272	347.37
914.573	365.16
914.875	294.03
915.177	321.97
915.478	311.81
915.78	301.65
916.081	283.87
916.382	283.87
916.684	360.08
916.985	309.27
917.286	349.91
917.587	334.67
917.888	299.11
918.19	347.37
918.491	337.21
918.792	327.05
919.092	314.35
919.393	327.05
919.694	337.21
919.995	327.05
920.295	362.62
920.596	339.75
920.897	316.89
921.197	296.57
921.498	296.57
921.798	339.75
922.099	261.01
922.399	362.62
922.699	301.65
922.999	362.62
923.3	286.41
923.6	349.91
923.9	288.95
924.2	278.79
924.5	324.51
924.8	281.33
925.099	286.41
925.399	291.49
925.699	377.86
925.999	324.51
926.298	324.51
926.598	266.09
926.898	339.75
927.197	301.65
927.496	304.19
927.796	370.24
928.095	362.62
928.394	321.97
928.694	390.56
928.993	319.43
929.292	327.05
929.591	294.03
929.89	329.59
930.189	377.86
930.488	296.57
930.787	311.81
931.086	319.43
931.384	327.05
931.683	342.29
931.982	332.13
932.28	309.27
932.579	316.89
932.877	362.62
933.176	263.55
933.474	288.95
933.773	393.1
934.071	255.93
934.369	273.71
934.667	334.67
934.965	311.81
935.263	294.03
935.561	306.73
935.859	329.59
936.157	299.11
936.455	294.03
936.753	253.39
937.051	327.05
937.348	347.37
937.646	352.45
937.944	314.35
938.241	324.51
938.539	337.21
938.836	362.62
939.134	360.08
939.431	324.51
939.728	370.24
940.025	301.65
940.323	385.48
940.62	276.25
940.917	227.98
941.214	291.49
941.511	349.91
941.808	334.67
942.105	316.89
942.401	276.25
942.698	339.75
942.995	347.37
943.292	309.27
943.588	352.45
943.885	296.57
944.181	291.49
944.478	306.73
944.774	306.73
945.07	309.27
945.367	321.97
945.663	339.75
945.959	306.73
946.255	327.05
946.551	347.37
946.847	222.9
947.143	311.81
947.439	286.41
947.735	332.13
948.031	240.69
948.327	288.95
948.622	278.79
948.918	271.17
949.214	299.11
949.509	355
949.805	281.33
950.1	316.89
950.395	273.71
950.691	306.73
950.986	299.11
951.281	283.87
951.576	276.25
951.872	288.95
952.167	332.13
952.462	382.94
952.757	329.59
953.052	342.29
953.346	306.73
953.641	370.24
953.936	283.87
954.231	352.45
954.525	365.16
954.82	382.94
955.115	337.21
955.409	355
955.703	385.48
955.998	370.24
956.292	314.35
956.586	240.69
956.881	253.39
957.175	319.43
957.469	362.62
957.763	294.03
958.057	233.06
958.351	365.16
958.645	301.65
958.939	380.4
959.233	294.03
959.526	304.19
959.82	360.08
960.114	355
960.407	393.1
960.701	319.43
960.994	268.63
961.288	281.33
961.581	299.11
961.874	263.55
962.168	332.13
962.461	332.13
962.754	344.83
963.047	342.29
963.34	309.27
963.633	329.59
963.926	334.67
964.219	273.71
964.512	299.11
964.805	281.33
965.098	311.81
965.39	319.43
965.683	314.35
965.975	261.01
966.268	334.67
966.56	294.03
966.853	271.17
967.145	365.16
967.438	299.11
967.73	355
968.022	344.83
968.314	299.11
968.606	283.87
968.898	357.54
969.19	314.35
969.482	283.87
969.774	276.25
970.066	299.11
970.358	332.13
970.65	278.79
970.941	294.03
971.233	321.97
971.525	301.65
971.816	324.51
972.108	332.13
972.399	314.35
972.69	329.59
972.982	334.67
973.273	324.51
973.564	324.51
973.855	329.59
974.146	311.81
974.437	344.83
974.728	314.35
975.019	294.03
975.31	327.05
975.601	299.11
975.892	355
976.183	344.83
976.473	299.11
976.764	372.78
977.054	321.97
977.345	299.11
977.635	304.19
977.926	316.89
978.216	314.35
978.506	385.48
978.797	332.13
979.087	309.27
979.377	301.65
979.667	324.51
979.957	309.27
980.247	248.31
980.537	372.78
980.827	304.19
981.117	329.59
981.407	413.42
981.696	296.57
981.986	390.56
982.276	355
982.565	255.93
982.855	314.35
983.144	281.33
983.433	230.52
983.723	253.39
984.012	311.81
984.301	329.59
984.59	309.27
984.88	344.83
985.169	309.27
985.458	288.95
985.747	291.49
986.036	342.29
986.324	314.35
986.613	398.18
986.902	311.81
987.191	288.95
987.479	283.87
987.768	283.87
988.056	306.73
988.345	294.03
988.633	321.97
988.922	334.67
989.21	299.11
989.498	342.29
989.787	299.11
990.075	304.19
990.363	375.32
990.651	337.21
990.939	349.91
991.227	423.58
991.515	243.23
991.803	324.51
992.09	271.17
992.378	296.57
992.666	299.11
992.953	339.75
993.241	283.87
993.529	329.59
993.816	337.21
994.103	301.65
994.391	321.97
994.678	355
994.965	311.81
995.253	286.41
995.54	299.11
995.827	395.64
996.114	258.47
996.401	319.43
996.688	342.29
996.975	250.85
997.262	339.75
997.548	281.33
997.835	286.41
998.122	349.91
998.408	314.35
998.695	316.89
998.981	319.43
999.268	347.37
999.554	367.7
999.841	324.51
1000.127	291.49
1000.413	230.52
1000.699	337.21
1000.985	327.05
1001.271	334.67
1001.558	349.91
1001.843	329.59
1002.129	332.13
1002.415	321.97
1002.701	273.71
1002.987	301.65
1003.273	245.77
1003.558	355
1003.844	375.32
1004.129	268.63
1004.415	243.23
1004.7	332.13
1004.986	344.83
1005.271	334.67
1005.556	296.57
1005.841	314.35
1006.127	268.63
1006.412	309.27
1006.697	268.63
1006.982	388.02
1007.267	339.75
1007.552	372.78
1007.836	281.33
1008.121	291.49
1008.406	281.33
1008.691	316.89
1008.975	248.31
1009.26	304.19
1009.544	288.95
1009.829	314.35
1010.113	311.81
1010.398	301.65
1010.682	314.35
1010.966	352.45
1011.25	319.43
1011.535	304.19
1011.819	309.27
1012.103	314.35
1012.387	319.43
1012.671	301.65
1012.954	349.91
1013.238	321.97
1013.522	314.35
1013.806	306.73
1014.089	288.95
1014.373	286.41
1014.657	263.55
1014.94	360.08
1015.223	347.37
1015.507	281.33
1015.79	342.29
1016.073	360.08
1016.357	311.81
1016.64	337.21
1016.923	324.51
1017.206	324.51
1017.489	296.57
1017.772	283.87
1018.055	276.25
1018.338	400.72
1018.621	380.4
1018.903	316.89
1019.186	329.59
1019.469	316.89
1019.751	281.33
1020.034	230.52
1020.316	215.28
1020.599	286.41
1020.881	276.25
1021.163	273.71
1021.446	273.71
1021.728	281.33
1022.01	281.33
1022.292	281.33
