Data from solis1d_750mA_white_FLMS192441__4__16-05-24-673.txt Node

Date: Tue Sep 13 16:05:24 CEST 2022
User: Spectrometer
Spectrometer: FLMS19244
Trigger mode: 0
Integration Time (sec): 1.000000E-1
Scans to average: 1
Electric dark correction enabled: true
Nonlinearity correction enabled: false
Boxcar width: 0
XAxis mode: Wavelengths
Number of Pixels in Spectrum: 2048
>>>>>Begin Spectral Data<<<<<
338.974	-13.18
339.356	-13.18
339.738	-13.18
340.12	-74.14
340.502	-53.82
340.883	-124.95
341.265	-58.9
341.647	-53.82
342.029	-8.1
342.41	-48.74
342.792	-53.82
343.173	-15.72
343.555	-8.1
343.936	-61.44
344.318	-91.92
344.699	52.87
345.08	37.63
345.462	65.57
345.843	55.41
346.224	157.02
346.605	157.02
346.986	83.35
347.368	169.72
347.749	210.36
348.13	230.68
348.51	240.84
348.891	268.79
349.272	261.17
349.653	245.92
350.034	220.52
350.414	337.37
350.795	352.61
351.176	342.45
351.556	263.71
351.937	342.45
352.317	344.99
352.698	296.73
353.078	433.9
353.459	395.8
353.839	347.53
354.219	365.31
354.599	370.4
354.98	342.45
355.36	344.99
355.74	329.75
356.12	299.27
356.5	327.21
356.88	372.94
357.26	339.91
357.64	322.13
358.02	357.69
358.399	309.43
358.779	357.69
359.159	398.34
359.539	423.74
359.918	370.4
360.298	291.65
360.677	375.48
361.057	441.52
361.436	352.61
361.816	372.94
362.195	352.61
362.574	375.48
362.954	256.09
363.333	337.37
363.712	291.65
364.091	322.13
364.47	309.43
364.849	350.07
365.228	411.04
365.607	311.97
365.986	367.85
366.365	225.6
366.744	332.29
367.123	367.85
367.501	281.49
367.88	299.27
368.259	304.35
368.637	337.37
369.016	314.51
369.394	271.33
369.773	322.13
370.151	375.48
370.53	289.11
370.908	334.83
371.286	347.53
371.665	245.92
372.043	324.67
372.421	388.18
372.799	385.64
373.177	350.07
373.555	278.95
373.933	329.75
374.311	365.31
374.689	294.19
375.067	342.45
375.445	362.77
375.823	418.66
376.2	390.72
376.578	350.07
376.956	286.57
377.333	306.89
377.711	334.83
378.088	367.85
378.466	311.97
378.843	309.43
379.22	344.99
379.598	319.59
379.975	355.15
380.352	301.81
380.73	322.13
381.107	370.4
381.484	347.53
381.861	334.83
382.238	367.85
382.615	347.53
382.992	266.25
383.369	319.59
383.746	344.99
384.122	390.72
384.499	339.91
384.876	289.11
385.252	372.94
385.629	375.48
386.006	347.53
386.382	372.94
386.759	296.73
387.135	418.66
387.512	350.07
387.888	360.23
388.264	367.85
388.641	375.48
389.017	329.75
389.393	408.5
389.769	418.66
390.145	385.64
390.521	294.19
390.897	352.61
391.273	339.91
391.649	324.67
392.025	451.68
392.401	375.48
392.777	413.58
393.152	317.05
393.528	319.59
393.904	347.53
394.279	324.67
394.655	372.94
395.03	289.11
395.406	383.1
395.781	278.95
396.157	314.51
396.532	332.29
396.907	388.18
397.283	464.38
397.658	332.29
398.033	441.52
398.408	367.85
398.783	319.59
399.158	388.18
399.533	357.69
399.908	362.77
400.283	390.72
400.658	367.85
401.033	334.83
401.407	294.19
401.782	378.02
402.157	408.5
402.531	319.59
402.906	360.23
403.28	324.67
403.655	456.76
404.029	329.75
404.404	378.02
404.778	311.97
405.153	355.15
405.527	365.31
405.901	352.61
406.275	426.28
406.649	367.85
407.023	441.52
407.397	436.44
407.771	362.77
408.145	421.2
408.519	385.64
408.893	423.74
409.267	385.64
409.641	398.34
410.015	444.06
410.388	532.97
410.762	388.18
411.136	466.92
411.509	502.49
411.883	428.82
412.256	525.35
412.63	522.81
413.003	446.6
413.376	540.59
413.75	573.61
414.123	616.8
414.496	596.47
414.869	604.09
415.242	604.09
415.615	698.08
415.988	733.65
416.361	667.6
416.734	738.73
417.107	769.21
417.48	825.09
417.853	959.72
418.226	952.1
418.598	977.51
418.971	1063.87
419.344	1178.18
419.716	1155.32
420.089	1277.25
420.461	1391.56
420.834	1490.63
421.206	1650.66
421.578	1648.12
421.951	1724.33
422.323	1869.12
422.695	2034.24
423.067	2120.6
423.439	2219.67
423.812	2537.2
424.184	2661.67
424.556	2829.32
424.928	2892.83
425.299	3121.45
425.671	3243.38
426.043	3459.3
426.415	3766.66
426.787	4020.68
427.158	4211.2
427.53	4470.3
427.902	4818.31
428.273	4955.48
428.645	5290.79
429.016	5687.06
429.387	6019.83
429.759	6375.46
430.13	6743.79
430.501	7134.99
430.873	7485.54
431.244	7942.78
431.615	8415.26
431.986	8974.1
432.357	9672.66
432.728	10137.52
433.099	10594.76
433.47	10836.08
433.841	11897.89
434.212	12146.83
434.583	12916.52
434.953	13719.22
435.324	14486.37
435.695	15220.49
436.065	16076.54
436.436	17267.9
436.806	17638.77
437.177	18840.3
437.547	20021.5
437.918	21017.26
438.288	21863.15
438.658	23410.14
439.028	24665.01
439.399	25714.12
439.769	26852.13
440.139	28289.9
440.509	29232.31
440.879	30962.2
441.249	31764.91
441.619	32750.51
441.989	33865.67
442.359	35425.36
442.728	36233.15
443.098	37498.17
443.468	38077.34
443.838	38676.83
444.207	39390.63
444.577	40454.98
444.946	40538.81
445.316	40193.34
445.685	40599.78
446.055	40604.86
446.424	40300.03
446.793	39751.34
447.163	39299.19
447.532	38425.35
447.901	38021.46
448.27	36863.12
448.639	35694.62
449.008	34488.02
449.377	33781.84
449.746	31950.34
450.115	30690.4
450.484	29029.1
450.853	28119.7
451.221	27121.4
451.59	25439.77
451.959	24286.52
452.327	23120.56
452.696	21792.03
453.065	21129.03
453.433	19587.12
453.801	18995.25
454.17	18007.11
454.538	17234.88
454.907	16269.6
455.275	15741.23
455.643	15151.9
456.011	14453.35
456.379	14041.83
456.747	13432.18
457.115	12827.61
457.483	12761.56
457.851	12591.37
458.219	12029.98
458.587	11521.94
458.955	11356.82
459.323	10993.57
459.69	11034.22
460.058	10627.78
460.426	10363.6
460.793	10218.81
461.161	10058.77
461.528	9576.13
461.896	9433.88
462.263	9418.64
462.631	9197.64
462.998	8930.92
463.365	8847.09
463.732	8237.44
464.1	7996.12
464.467	7991.04
464.834	7848.79
465.201	7516.02
465.568	7241.68
465.935	7208.65
466.302	7165.47
466.669	6723.47
467.035	6474.53
467.402	6449.13
467.769	6306.88
468.136	6096.04
468.502	5839.48
468.869	5699.77
469.235	5514.33
469.602	5387.32
469.968	5491.47
470.335	5270.47
470.701	4978.34
471.067	5143.46
471.434	5130.76
471.8	4991.05
472.166	4792.91
472.532	4831.01
472.898	4678.6
473.264	4886.9
473.63	4902.14
473.996	4589.69
474.362	4645.58
474.728	4681.14
475.094	4521.11
475.46	4635.42
475.825	4660.82
476.191	4597.31
476.557	4792.91
476.922	4510.95
477.288	4612.55
477.653	4635.42
478.019	4625.25
478.384	4599.85
478.749	4566.83
479.115	4541.43
479.48	4734.48
479.845	4637.96
480.21	4706.54
480.576	4686.22
480.941	4612.55
481.306	4724.32
481.671	4762.43
482.036	4576.99
482.401	4780.21
482.765	4759.89
483.13	4734.48
483.495	4843.71
483.86	4772.59
484.224	4919.92
484.589	5031.69
484.954	5049.47
485.318	5295.87
485.683	5326.35
486.047	5288.25
486.412	5547.35
486.776	5577.84
487.14	5725.17
487.504	5892.82
487.869	5900.44
488.233	6101.12
488.597	6355.14
488.961	6535.5
489.325	6771.74
489.689	7074.02
490.053	7195.95
490.417	7663.35
490.781	8001.2
491.145	8140.91
491.508	8478.76
491.872	8996.96
492.236	9108.73
492.599	9532.95
492.963	9987.65
493.327	10361.06
493.69	10757.33
494.054	11392.39
494.417	11689.59
494.78	11801.36
495.144	12494.84
495.507	13043.53
495.87	13686.2
496.233	14313.63
496.596	14603.22
496.959	15436.41
497.322	15908.89
497.685	16571.88
498.048	17209.48
498.411	17506.68
498.774	18492.29
499.137	19089.24
499.5	19477.89
499.862	20227.25
500.225	21215.4
500.588	22048.59
500.95	22772.55
501.313	23323.78
501.675	24245.87
502.038	24695.49
502.4	25579.49
502.762	26646.38
503.125	27548.15
503.487	28465.17
503.849	28909.71
504.211	30032.48
504.574	30657.38
504.936	31655.68
505.298	32247.55
505.66	33271.26
506.022	34030.78
506.383	34952.88
506.745	35590.47
507.107	36708.17
507.469	37460.07
507.831	38224.68
508.192	39322.05
508.554	39949.48
508.915	40848.72
509.277	41346.6
509.638	41989.27
510	42807.22
510.361	43129.83
510.723	44382.16
511.084	44666.66
511.445	45629.4
511.806	45946.93
512.167	46569.28
512.529	47440.57
512.89	47765.72
513.251	48372.83
513.612	48385.53
513.972	49249.21
514.333	49797.89
514.694	49670.88
515.055	50836.84
515.416	51007.04
515.776	51098.48
516.137	51992.64
516.498	51461.73
516.858	52637.85
517.219	52546.41
517.579	52688.66
517.94	53491.37
518.3	53671.72
518.66	53874.94
519.021	54032.43
519.381	53961.31
519.741	54286.45
520.101	54944.37
520.461	55132.34
520.821	55139.97
521.181	55592.12
521.541	55790.26
521.901	56105.25
522.261	55894.41
522.621	55876.63
522.981	56072.22
523.34	56349.11
523.7	56404.99
524.06	56732.68
524.419	57205.16
524.779	56882.55
525.138	56618.37
525.498	57261.04
525.857	57324.55
526.216	57022.26
526.576	57205.16
526.935	57352.49
527.294	57614.13
527.653	57045.13
528.013	57271.21
528.372	57327.09
528.731	57385.51
529.09	57327.09
529.449	57245.8
529.807	57385.51
530.166	57098.47
530.525	57583.65
530.884	57169.6
531.243	57042.59
531.601	57009.56
531.96	57283.91
532.318	57073.07
532.677	57131.49
533.035	56595.51
533.394	56740.3
533.752	57268.66
534.111	56915.58
534.469	56577.73
534.827	56813.97
535.185	56885.09
535.543	56864.77
535.902	56918.12
536.26	56681.88
536.618	56902.87
536.976	56435.47
537.334	56826.67
537.691	56775.86
538.049	57004.48
538.407	56813.97
538.765	56905.41
539.122	56699.66
539.48	56760.62
539.838	56935.9
540.195	56755.54
540.553	56948.6
540.91	56727.6
541.268	56956.22
541.625	56567.57
541.982	56862.23
542.34	56928.28
542.697	56707.28
543.054	56582.81
543.411	57052.75
543.768	56996.86
544.125	56633.61
544.482	56768.24
544.839	57126.41
545.196	57017.18
545.553	57156.9
545.91	56928.28
546.267	56966.38
546.623	56753
546.98	56897.79
547.337	56737.76
547.693	56816.51
548.05	56933.36
548.406	56953.68
548.763	56923.2
549.119	56834.29
549.475	56740.3
549.832	57139.11
550.188	56600.59
550.544	56590.43
550.9	56415.15
551.256	56981.62
551.612	56831.75
551.968	56877.47
552.324	56816.51
552.68	56910.49
553.036	56753
553.392	57057.83
553.748	57116.25
554.104	56958.76
554.459	56483.74
554.815	56887.63
555.17	57248.34
555.526	56753
555.882	57187.38
556.237	56895.25
556.592	57228.02
556.948	57306.77
557.303	57294.07
557.658	57205.16
558.014	57283.91
558.369	57357.57
558.724	57327.09
559.079	57583.65
559.434	57509.99
559.789	57918.96
560.144	57682.72
560.499	57809.73
560.854	57901.18
561.209	57870.7
561.563	57901.18
561.918	57931.66
562.273	58335.56
562.627	58386.36
562.982	58203.46
563.336	58233.95
563.691	58101.86
564.045	58333.01
564.4	58333.01
564.754	58338.1
565.108	58256.81
565.463	58246.65
565.817	58607.36
566.171	58546.39
566.525	58147.58
566.879	58579.42
567.233	58513.37
567.587	58551.47
567.941	58094.23
568.295	58477.81
568.649	57865.62
569.002	58691.19
569.356	58188.22
569.71	58249.19
570.064	58068.83
570.417	57936.74
570.771	57885.94
571.124	57893.56
571.478	58157.74
571.831	57718.28
572.184	57576.03
572.538	57509.99
572.891	57603.97
573.244	57746.23
573.597	57431.24
573.95	57238.18
574.304	57454.1
574.657	57149.27
575.01	57408.38
575.362	56986.7
575.715	57113.71
576.068	57278.83
576.421	56689.5
576.774	56930.82
577.126	56394.83
577.479	56331.33
577.832	56885.09
578.184	56270.36
578.537	56534.54
578.889	56199.23
579.242	56097.63
579.594	56577.73
579.946	55889.33
580.299	56056.98
580.651	55985.86
581.003	55701.35
581.355	55625.15
581.707	55617.53
582.059	55650.55
582.411	55508.3
582.763	55533.7
583.115	55698.81
583.467	55368.58
583.819	55188.23
584.171	55244.11
584.522	55231.41
584.874	54652.24
585.226	54761.47
585.577	54606.52
585.929	54700.51
586.28	54530.31
586.632	53966.39
586.983	54489.67
587.334	54304.23
587.686	54230.57
588.037	53463.42
588.388	53796.19
588.739	53133.2
589.09	52889.33
589.441	52378.75
589.792	52752.16
590.143	52157.75
590.494	52180.61
590.845	51830.07
591.196	51570.96
591.547	51410.93
591.897	50570.12
592.248	50379.6
592.599	50717.45
592.949	50308.48
593.3	49576.89
593.65	49467.67
594.001	49711.53
594.351	49023.13
594.702	48614.15
595.052	48461.74
595.402	48301.71
595.752	47620.93
596.102	47671.73
596.453	47559.96
596.803	46914.75
597.153	46548.96
597.503	46355.9
597.853	46046
598.202	45898.66
598.552	45601.46
598.902	45154.38
599.252	44874.96
599.601	44592.99
599.951	44869.88
600.301	44387.24
600.65	43899.51
601	43902.06
601.349	42865.65
601.699	42786.9
602.048	42616.71
602.397	42774.2
602.747	42337.28
603.096	41991.81
603.445	41897.83
603.794	41186.57
604.143	41250.07
604.492	40554.05
604.841	41062.09
605.19	40421.96
605.539	39588.77
605.888	39929.16
606.237	38880.05
606.585	39078.19
606.934	39078.19
607.283	38610.79
607.631	38557.44
607.98	38100.2
608.328	37742.03
608.677	37320.36
609.025	36888.52
609.374	36865.66
609.722	36174.72
610.07	35620.95
610.418	35501.56
610.767	35219.6
611.115	34449.92
611.463	34764.9
611.811	34046.02
612.159	33794.54
612.507	33337.3
612.855	33350
613.202	32257.71
613.55	32161.18
613.898	31985.91
614.246	31330.53
614.593	31274.65
614.941	30901.24
615.288	30268.72
615.636	29455.85
615.983	29539.68
616.331	29191.67
616.678	28790.32
617.026	28612.5
617.373	28414.37
617.72	27825.04
618.067	27540.53
618.414	27177.28
618.761	26971.52
619.108	26511.74
619.455	26328.85
619.802	26034.18
620.149	26145.95
620.496	25170.51
620.843	25289.9
621.19	24725.97
621.536	24441.47
621.883	24268.74
622.23	23699.73
622.576	23384.74
622.923	23138.34
623.269	22848.76
623.616	22554.09
623.962	22371.19
624.308	22193.38
624.655	21911.42
625.001	21502.44
625.347	21192.54
625.693	21197.62
626.039	20722.6
626.385	20674.33
626.731	19975.77
627.077	20140.89
627.423	19620.14
627.769	19526.15
628.115	19363.58
628.46	18995.25
628.806	18583.73
629.152	18634.54
629.497	18444.02
629.843	18184.92
630.189	17778.49
630.534	17466.04
630.879	17562.57
631.225	17064.69
631.57	16737
631.915	16869.09
632.261	16302.62
632.606	16239.12
632.951	16056.22
633.296	15698.05
633.641	15129.04
633.986	15167.15
634.331	15022.35
634.676	14742.93
635.021	14600.68
635.365	14549.87
635.71	14176.46
636.055	13902.12
636.4	13452.5
636.744	13300.09
637.089	13330.57
637.433	13096.87
637.778	12670.11
638.122	12644.71
638.466	12522.78
638.811	12705.68
639.155	12004.58
639.499	12029.98
639.843	11610.85
640.188	11793.74
640.532	11448.27
640.876	11239.97
641.22	11130.74
641.564	11097.72
641.908	10752.25
642.251	10757.33
642.595	10505.85
642.939	10610
643.283	10297.55
643.626	10013.05
643.97	10096.88
644.313	9880.96
644.657	9819.99
645	9619.32
645.344	9548.19
645.687	9492.31
646.03	9289.09
646.374	9238.28
646.717	9314.49
647.06	8770.89
647.403	8722.62
647.746	8732.78
648.089	8626.09
648.432	8293.32
648.775	8336.51
649.118	8262.84
649.461	8156.15
649.804	7930.07
650.146	7919.91
650.489	7800.52
650.832	7686.21
651.174	7653.19
651.517	7612.55
651.859	7282.32
652.202	7353.45
652.544	7170.55
652.887	7239.14
653.229	7041
653.571	6952.09
653.913	6931.77
654.256	6830.16
654.598	6581.22
654.94	6573.6
655.282	6477.07
655.624	6405.95
655.966	6441.51
656.308	6154.46
656.649	6162.08
656.991	5864.88
657.333	6012.21
657.675	5862.34
658.016	5849.64
658.358	5717.55
658.699	5730.25
659.041	5539.73
659.382	5593.08
659.724	5702.31
660.065	5458.45
660.406	5542.27
660.748	5283.17
661.089	5234.91
661.43	5181.56
661.771	4993.59
662.112	5072.33
662.453	4881.82
662.794	4968.18
663.135	4729.4
663.476	4711.62
663.817	4861.49
664.157	4630.34
664.498	4698.92
664.839	4610.01
665.179	4554.13
665.52	4422.04
665.86	4406.8
666.201	4335.67
666.541	4228.98
666.882	4231.52
667.222	4302.65
667.562	4223.9
667.903	4223.9
668.243	3926.7
668.583	4000.36
668.923	4025.76
669.263	3883.51
669.603	4000.36
669.943	3822.55
670.283	3863.19
670.623	3748.88
670.963	3713.32
671.302	3639.65
671.642	3672.67
671.982	3571.07
672.321	3611.71
672.661	3629.49
673	3515.18
673.34	3593.93
673.679	3405.95
674.019	3268.78
674.358	3418.65
674.697	3225.6
675.036	3192.57
675.376	3113.83
675.715	3146.85
676.054	3187.49
676.393	3090.97
676.732	3098.59
677.071	2994.44
677.41	2994.44
677.748	2892.83
678.087	3037.62
678.426	2936.01
678.765	2831.86
679.103	2857.27
679.442	2852.18
679.78	2671.83
680.119	2712.47
680.457	2674.37
680.796	2707.39
681.134	2659.13
681.472	2539.74
681.811	2554.98
682.149	2468.61
682.487	2460.99
682.825	2425.43
683.163	2463.53
683.501	2339.06
683.839	2438.13
684.177	2397.49
684.515	2201.89
684.853	2267.94
685.191	2326.36
685.528	2306.04
685.866	2295.88
686.204	2171.41
686.541	2158.71
686.879	2184.11
687.216	2092.66
687.554	2046.94
687.891	2034.24
688.228	2024.07
688.566	2092.66
688.903	2057.1
689.24	1958.03
689.577	1970.73
689.914	1914.85
690.251	1985.97
690.588	1922.47
690.925	1886.9
691.262	1848.8
691.599	1800.54
691.936	1800.54
692.273	1752.27
692.609	1775.13
692.946	1777.67
693.282	1762.43
693.619	1686.23
693.956	1607.48
694.292	1561.76
694.628	1737.03
694.965	1653.2
695.301	1589.7
695.637	1589.7
695.974	1658.28
696.31	1523.65
696.646	1648.12
696.982	1561.76
697.318	1510.95
697.654	1437.29
697.99	1447.45
698.326	1549.05
698.662	1434.75
698.997	1399.18
699.333	1373.78
699.669	1333.14
700.004	1516.03
700.34	1356
700.675	1328.06
701.011	1371.24
701.346	1284.87
701.682	1295.03
702.017	1358.54
702.352	1201.05
702.688	1244.23
703.023	1282.33
703.358	1211.21
703.693	1241.69
704.028	1178.18
704.363	1292.49
704.698	1249.31
705.033	1157.86
705.368	1162.94
705.703	1193.42
706.037	1147.7
706.372	1183.26
706.707	1178.18
707.041	1155.32
707.376	1099.44
707.71	1076.57
708.045	1079.11
708.379	1101.98
708.714	1013.07
709.048	1020.69
709.382	1076.57
709.716	1005.45
710.051	952.1
710.385	1038.47
710.719	962.27
711.053	985.13
711.387	919.08
711.721	972.43
712.055	1010.53
712.388	891.14
712.722	893.68
713.056	845.42
713.39	850.5
713.723	911.46
714.057	865.74
714.39	914
714.724	792.07
715.057	931.78
715.391	825.09
715.724	883.52
716.057	873.36
716.39	792.07
716.724	855.58
717.057	863.2
717.39	807.31
717.723	766.67
718.056	741.27
718.389	822.55
718.722	781.91
719.055	789.53
719.387	682.84
719.72	715.86
720.053	761.59
720.385	792.07
720.718	738.73
721.051	639.66
721.383	667.6
721.716	710.78
722.048	720.94
722.38	743.81
722.713	695.54
723.045	687.92
723.377	710.78
723.709	685.38
724.041	675.22
724.373	626.96
724.705	652.36
725.037	659.98
725.369	667.6
725.701	672.68
726.033	693
726.365	639.66
726.696	654.9
727.028	530.43
727.36	588.85
727.691	583.77
728.023	665.06
728.354	565.99
728.686	629.5
729.017	680.3
729.348	637.12
729.68	550.75
730.011	611.72
730.342	568.53
730.673	492.33
731.004	565.99
731.335	573.61
731.666	599.01
731.997	609.18
732.328	601.55
732.659	505.03
732.99	576.15
733.32	492.33
733.651	609.18
733.982	649.82
734.312	535.51
734.643	525.35
734.973	505.03
735.304	497.41
735.634	527.89
735.965	479.62
736.295	571.07
736.625	535.51
736.955	472
737.285	482.16
737.616	466.92
737.946	588.85
738.276	459.3
738.605	530.43
738.935	530.43
739.265	497.41
739.595	527.89
739.925	507.57
740.254	538.05
740.584	466.92
740.914	517.73
741.243	477.08
741.573	390.72
741.902	466.92
742.232	446.6
742.561	446.6
742.89	497.41
743.22	459.3
743.549	482.16
743.878	487.24
744.207	466.92
744.536	416.12
744.865	517.73
745.194	408.5
745.523	416.12
745.852	400.88
746.181	431.36
746.509	472
746.838	461.84
747.167	461.84
747.495	403.42
747.824	444.06
748.152	383.1
748.481	362.77
748.809	520.27
749.138	403.42
749.466	393.26
749.794	438.98
750.122	433.9
750.451	411.04
750.779	367.85
751.107	444.06
751.435	380.56
751.763	428.82
752.091	433.9
752.419	411.04
752.746	362.77
753.074	428.82
753.402	375.48
753.73	428.82
754.057	454.22
754.385	413.58
754.712	360.23
755.04	370.4
755.367	329.75
755.695	383.1
756.022	428.82
756.349	342.45
756.676	423.74
757.004	393.26
757.331	383.1
757.658	400.88
757.985	433.9
758.312	454.22
758.639	342.45
758.966	403.42
759.292	311.97
759.619	372.94
759.946	408.5
760.273	408.5
760.599	418.66
760.926	418.66
761.252	408.5
761.579	395.8
761.905	334.83
762.232	350.07
762.558	390.72
762.884	411.04
763.21	385.64
763.537	431.36
763.863	423.74
764.189	337.37
764.515	362.77
764.841	380.56
765.167	352.61
765.493	393.26
765.818	411.04
766.144	291.65
766.47	281.49
766.796	342.45
767.121	337.37
767.447	388.18
767.772	418.66
768.098	301.81
768.423	332.29
768.749	360.23
769.074	329.75
769.399	355.15
769.725	256.09
770.05	337.37
770.375	306.89
770.7	322.13
771.025	350.07
771.35	360.23
771.675	309.43
772	350.07
772.325	378.02
772.649	362.77
772.974	423.74
773.299	362.77
773.624	383.1
773.948	350.07
774.273	388.18
774.597	408.5
774.922	357.69
775.246	317.05
775.57	357.69
775.895	466.92
776.219	350.07
776.543	324.67
776.867	365.31
777.191	334.83
777.515	380.56
777.839	367.85
778.163	334.83
778.487	324.67
778.811	380.56
779.135	332.29
779.458	314.51
779.782	319.59
780.106	329.75
780.429	317.05
780.753	372.94
781.076	390.72
781.4	245.92
781.723	317.05
782.047	365.31
782.37	311.97
782.693	352.61
783.016	370.4
783.339	314.51
783.663	339.91
783.986	372.94
784.309	296.73
784.632	357.69
784.954	228.14
785.277	383.1
785.6	347.53
785.923	436.44
786.245	314.51
786.568	372.94
786.891	311.97
787.213	350.07
787.536	370.4
787.858	299.27
788.181	301.81
788.503	332.29
788.825	317.05
789.147	327.21
789.47	296.73
789.792	337.37
790.114	388.18
790.436	385.64
790.758	289.11
791.08	289.11
791.402	400.88
791.724	344.99
792.045	400.88
792.367	388.18
792.689	393.26
793.01	296.73
793.332	253.55
793.653	327.21
793.975	314.51
794.296	398.34
794.618	339.91
794.939	360.23
795.26	309.43
795.582	350.07
795.903	334.83
796.224	266.25
796.545	306.89
796.866	322.13
797.187	362.77
797.508	299.27
797.829	355.15
798.15	334.83
798.471	327.21
798.791	327.21
799.112	362.77
799.433	314.51
799.753	365.31
800.074	304.35
800.394	329.75
800.715	347.53
801.035	309.43
801.355	319.59
801.676	355.15
801.996	317.05
802.316	334.83
802.636	261.17
802.956	398.34
803.276	405.96
803.596	344.99
803.916	365.31
804.236	337.37
804.556	324.67
804.876	344.99
805.195	324.67
805.515	314.51
805.835	370.4
806.154	355.15
806.474	339.91
806.793	329.75
807.113	273.87
807.432	327.21
807.751	339.91
808.071	347.53
808.39	342.45
808.709	329.75
809.028	223.06
809.347	367.85
809.666	344.99
809.985	271.33
810.304	271.33
810.623	304.35
810.942	380.56
811.261	329.75
811.579	352.61
811.898	311.97
812.217	329.75
812.535	342.45
812.854	327.21
813.172	281.49
813.491	266.25
813.809	271.33
814.127	332.29
814.446	273.87
814.764	352.61
815.082	339.91
815.4	317.05
815.718	271.33
816.036	319.59
816.354	256.09
816.672	306.89
816.99	365.31
817.308	388.18
817.625	352.61
817.943	319.59
818.261	309.43
818.578	324.67
818.896	370.4
819.213	383.1
819.531	301.81
819.848	296.73
820.166	329.75
820.483	296.73
820.8	408.5
821.117	383.1
821.435	289.11
821.752	311.97
822.069	360.23
822.386	319.59
822.703	342.45
823.02	311.97
823.336	322.13
823.653	317.05
823.97	327.21
824.287	352.61
824.603	337.37
824.92	256.09
825.236	355.15
825.553	284.03
825.869	352.61
826.186	289.11
826.502	344.99
826.818	375.48
827.135	350.07
827.451	388.18
827.767	322.13
828.083	278.95
828.399	385.64
828.715	317.05
829.031	339.91
829.347	362.77
829.663	423.74
829.979	370.4
830.294	319.59
830.61	327.21
830.926	337.37
831.241	352.61
831.557	362.77
831.872	301.81
832.188	304.35
832.503	370.4
832.818	286.57
833.134	317.05
833.449	352.61
833.764	375.48
834.079	311.97
834.394	258.63
834.709	344.99
835.024	342.45
835.339	339.91
835.654	327.21
835.969	362.77
836.284	334.83
836.598	337.37
836.913	271.33
837.228	309.43
837.542	286.57
837.857	284.03
838.171	380.56
838.485	317.05
838.8	327.21
839.114	355.15
839.428	339.91
839.743	286.57
840.057	370.4
840.371	380.56
840.685	299.27
840.999	327.21
841.313	319.59
841.627	311.97
841.941	342.45
842.254	332.29
842.568	360.23
842.882	413.58
843.196	367.85
843.509	372.94
843.823	342.45
844.136	317.05
844.45	251
844.763	334.83
845.076	352.61
845.39	291.65
845.703	360.23
846.016	337.37
846.329	273.87
846.642	311.97
846.955	306.89
847.268	332.29
847.581	355.15
847.894	294.19
848.207	332.29
848.52	350.07
848.832	296.73
849.145	299.27
849.458	309.43
849.77	362.77
850.083	306.89
850.395	299.27
850.708	301.81
851.02	372.94
851.332	342.45
851.645	324.67
851.957	337.37
852.269	383.1
852.581	357.69
852.893	347.53
853.205	344.99
853.517	339.91
853.829	301.81
854.141	284.03
854.453	273.87
854.765	309.43
855.076	332.29
855.388	347.53
855.7	329.75
856.011	350.07
856.323	372.94
856.634	276.41
856.945	294.19
857.257	311.97
857.568	271.33
857.879	317.05
858.191	350.07
858.502	273.87
858.813	337.37
859.124	352.61
859.435	370.4
859.746	301.81
860.057	314.51
860.368	334.83
860.678	347.53
860.989	352.61
861.3	367.85
861.61	278.95
861.921	284.03
862.231	370.4
862.542	322.13
862.852	411.04
863.163	256.09
863.473	334.83
863.783	327.21
864.094	311.97
864.404	378.02
864.714	319.59
865.024	370.4
865.334	375.48
865.644	322.13
865.954	319.59
866.264	296.73
866.573	347.53
866.883	334.83
867.193	306.89
867.503	367.85
867.812	314.51
868.122	309.43
868.431	324.67
868.741	273.87
869.05	355.15
869.359	339.91
869.669	317.05
869.978	324.67
870.287	365.31
870.596	304.35
870.905	388.18
871.214	289.11
871.523	314.51
871.832	390.72
872.141	309.43
872.45	289.11
872.759	311.97
873.068	370.4
873.376	306.89
873.685	276.41
873.993	291.65
874.302	383.1
874.61	352.61
874.919	344.99
875.227	309.43
875.536	230.68
875.844	388.18
876.152	357.69
876.46	319.59
876.768	301.81
877.076	408.5
877.384	370.4
877.692	299.27
878	347.53
878.308	342.45
878.616	344.99
878.924	251
879.231	266.25
879.539	309.43
879.847	281.49
880.154	365.31
880.462	347.53
880.769	339.91
881.077	367.85
881.384	296.73
881.691	324.67
881.998	350.07
882.306	362.77
882.613	370.4
882.92	334.83
883.227	278.95
883.534	388.18
883.841	352.61
884.148	362.77
884.454	289.11
884.761	383.1
885.068	339.91
885.375	388.18
885.681	378.02
885.988	388.18
886.294	327.21
886.601	352.61
886.907	360.23
887.213	334.83
887.52	360.23
887.826	309.43
888.132	362.77
888.438	317.05
888.745	385.64
889.051	327.21
889.357	296.73
889.662	296.73
889.968	278.95
890.274	294.19
890.58	375.48
890.886	370.4
891.191	314.51
891.497	261.17
891.803	400.88
892.108	344.99
892.414	357.69
892.719	263.71
893.024	362.77
893.33	337.37
893.635	365.31
893.94	431.36
894.245	329.75
894.551	342.45
894.856	304.35
895.161	324.67
895.466	327.21
895.771	286.57
896.075	332.29
896.38	319.59
896.685	304.35
896.99	329.75
897.294	339.91
897.599	372.94
897.903	352.61
898.208	263.71
898.512	281.49
898.817	332.29
899.121	327.21
899.425	388.18
899.73	294.19
900.034	342.45
900.338	240.84
900.642	319.59
900.946	334.83
901.25	334.83
901.554	317.05
901.858	276.41
902.162	276.41
902.465	309.43
902.769	375.48
903.073	334.83
903.376	289.11
903.68	370.4
903.983	311.97
904.287	334.83
904.59	319.59
904.894	337.37
905.197	393.26
905.5	393.26
905.803	309.43
906.107	306.89
906.41	304.35
906.713	286.57
907.016	367.85
907.319	367.85
907.621	294.19
907.924	334.83
908.227	355.15
908.53	329.75
908.832	339.91
909.135	334.83
909.438	390.72
909.74	309.43
910.043	342.45
910.345	296.73
910.647	304.35
910.95	347.53
911.252	311.97
911.554	296.73
911.856	365.31
912.158	339.91
912.461	304.35
912.763	347.53
913.064	294.19
913.366	344.99
913.668	383.1
913.97	238.3
914.272	370.4
914.573	380.56
914.875	350.07
915.177	256.09
915.478	337.37
915.78	372.94
916.081	271.33
916.382	342.45
916.684	365.31
916.985	223.06
917.286	347.53
917.587	337.37
917.888	367.85
918.19	360.23
918.491	350.07
918.792	339.91
919.092	360.23
919.393	339.91
919.694	306.89
919.995	332.29
920.295	367.85
920.596	296.73
920.897	317.05
921.197	319.59
921.498	251
921.798	273.87
922.099	324.67
922.399	309.43
922.699	337.37
922.999	398.34
923.3	243.38
923.6	334.83
923.9	286.57
924.2	309.43
924.5	319.59
924.8	294.19
925.099	375.48
925.399	334.83
925.699	291.65
925.999	362.77
926.298	273.87
926.598	350.07
926.898	243.38
927.197	332.29
927.496	347.53
927.796	273.87
928.095	337.37
928.394	329.75
928.694	357.69
928.993	268.79
929.292	390.72
929.591	289.11
929.89	296.73
930.189	309.43
930.488	403.42
930.787	367.85
931.086	286.57
931.384	248.46
931.683	327.21
931.982	337.37
932.28	284.03
932.579	294.19
932.877	322.13
933.176	350.07
933.474	304.35
933.773	365.31
934.071	304.35
934.369	311.97
934.667	306.89
934.965	284.03
935.263	309.43
935.561	355.15
935.859	322.13
936.157	365.31
936.455	385.64
936.753	342.45
937.051	329.75
937.348	342.45
937.646	365.31
937.944	319.59
938.241	372.94
938.539	393.26
938.836	337.37
939.134	329.75
939.431	256.09
939.728	357.69
940.025	301.81
940.323	294.19
940.62	388.18
940.917	294.19
941.214	268.79
941.511	291.65
941.808	400.88
942.105	350.07
942.401	375.48
942.698	438.98
942.995	362.77
943.292	291.65
943.588	317.05
943.885	365.31
944.181	314.51
944.478	271.33
944.774	322.13
945.07	294.19
945.367	324.67
945.663	319.59
945.959	337.37
946.255	372.94
946.551	339.91
946.847	339.91
947.143	291.65
947.439	365.31
947.735	317.05
948.031	408.5
948.327	337.37
948.622	291.65
948.918	294.19
949.214	253.55
949.509	319.59
949.805	334.83
950.1	261.17
950.395	304.35
950.691	294.19
950.986	276.41
951.281	344.99
951.576	301.81
951.872	284.03
952.167	360.23
952.462	360.23
952.757	243.38
953.052	322.13
953.346	273.87
953.641	342.45
953.936	296.73
954.231	324.67
954.525	286.57
954.82	350.07
955.115	367.85
955.409	350.07
955.703	380.56
955.998	289.11
956.292	352.61
956.586	355.15
956.881	306.89
957.175	322.13
957.469	225.6
957.763	403.42
958.057	365.31
958.351	329.75
958.645	245.92
958.939	339.91
959.233	352.61
959.526	299.27
959.82	276.41
960.114	416.12
960.407	245.92
960.701	372.94
960.994	357.69
961.288	294.19
961.581	258.63
961.874	253.55
962.168	261.17
962.461	284.03
962.754	309.43
963.047	347.53
963.34	314.51
963.633	301.81
963.926	319.59
964.219	367.85
964.512	355.15
964.805	263.71
965.098	327.21
965.39	296.73
965.683	309.43
965.975	284.03
966.268	294.19
966.56	304.35
966.853	385.64
967.145	245.92
967.438	339.91
967.73	350.07
968.022	370.4
968.314	258.63
968.606	355.15
968.898	286.57
969.19	317.05
969.482	317.05
969.774	301.81
970.066	329.75
970.358	324.67
970.65	329.75
970.941	314.51
971.233	337.37
971.525	281.49
971.816	299.27
972.108	327.21
972.399	319.59
972.69	268.79
972.982	317.05
973.273	230.68
973.564	319.59
973.855	347.53
974.146	327.21
974.437	334.83
974.728	261.17
975.019	357.69
975.31	314.51
975.601	344.99
975.892	309.43
976.183	337.37
976.473	355.15
976.764	268.79
977.054	299.27
977.345	256.09
977.635	350.07
977.926	339.91
978.216	378.02
978.506	271.33
978.797	309.43
979.087	383.1
979.377	352.61
979.667	350.07
979.957	291.65
980.247	271.33
980.537	408.5
980.827	225.6
981.117	408.5
981.407	383.1
981.696	291.65
981.986	253.55
982.276	314.51
982.565	350.07
982.855	261.17
983.144	393.26
983.433	344.99
983.723	329.75
984.012	332.29
984.301	322.13
984.59	383.1
984.88	299.27
985.169	372.94
985.458	266.25
985.747	220.52
986.036	362.77
986.324	291.65
986.613	271.33
986.902	273.87
987.191	286.57
987.479	256.09
987.768	296.73
988.056	347.53
988.345	268.79
988.633	334.83
988.922	319.59
989.21	355.15
989.498	314.51
989.787	276.41
990.075	380.56
990.363	311.97
990.651	324.67
990.939	329.75
991.227	258.63
991.515	230.68
991.803	296.73
992.09	289.11
992.378	362.77
992.666	408.5
992.953	281.49
993.241	355.15
993.529	235.76
993.816	235.76
994.103	258.63
994.391	311.97
994.678	294.19
994.965	329.75
995.253	344.99
995.54	367.85
995.827	291.65
996.114	304.35
996.401	337.37
996.688	355.15
996.975	268.79
997.262	301.81
997.548	258.63
997.835	304.35
998.122	365.31
998.408	301.81
998.695	220.52
998.981	372.94
999.268	329.75
999.554	314.51
999.841	322.13
1000.127	327.21
1000.413	347.53
1000.699	245.92
1000.985	268.79
1001.271	271.33
1001.558	355.15
1001.843	289.11
1002.129	370.4
1002.415	200.2
1002.701	322.13
1002.987	284.03
1003.273	296.73
1003.558	337.37
1003.844	296.73
1004.129	266.25
1004.415	324.67
1004.7	319.59
1004.986	385.64
1005.271	314.51
1005.556	289.11
1005.841	284.03
1006.127	291.65
1006.412	294.19
1006.697	319.59
1006.982	296.73
1007.267	304.35
1007.552	337.37
1007.836	289.11
1008.121	291.65
1008.406	309.43
1008.691	344.99
1008.975	370.4
1009.26	347.53
1009.544	306.89
1009.829	256.09
1010.113	380.56
1010.398	342.45
1010.682	309.43
1010.966	416.12
1011.25	360.23
1011.535	271.33
1011.819	352.61
1012.103	261.17
1012.387	304.35
1012.671	388.18
1012.954	276.41
1013.238	317.05
1013.522	332.29
1013.806	355.15
1014.089	314.51
1014.373	304.35
1014.657	243.38
1014.94	337.37
1015.223	370.4
1015.507	284.03
1015.79	289.11
1016.073	334.83
1016.357	314.51
1016.64	317.05
1016.923	334.83
1017.206	256.09
1017.489	319.59
1017.772	319.59
1018.055	314.51
1018.338	299.27
1018.621	334.83
1018.903	286.57
1019.186	256.09
1019.469	339.91
1019.751	367.85
1020.034	278.95
1020.316	309.43
1020.599	294.19
1020.881	383.1
1021.163	278.95
1021.446	266.25
1021.728	342.45
1022.01	342.45
1022.292	342.45
