Data from solis1d_750mA_black_FLMS192441__9__16-09-17-664.txt Node

Date: Tue Sep 13 16:09:17 CEST 2022
User: Spectrometer
Spectrometer: FLMS19244
Trigger mode: 0
Integration Time (sec): 1.000000E-1
Scans to average: 1
Electric dark correction enabled: true
Nonlinearity correction enabled: false
Boxcar width: 0
XAxis mode: Wavelengths
Number of Pixels in Spectrum: 2048
>>>>>Begin Spectral Data<<<<<
338.974	-104.78
339.356	-104.78
339.738	-104.78
340.12	-107.32
340.502	-20.96
340.883	-104.78
341.265	-71.76
341.647	-48.9
342.029	-36.2
342.41	-18.42
342.792	-69.22
343.173	-53.98
343.555	-41.28
343.936	-97.16
344.318	-0.64
344.699	85.73
345.08	62.87
345.462	108.59
345.843	85.73
346.224	47.63
346.605	151.78
346.986	111.13
347.368	174.64
347.749	177.18
348.13	220.36
348.51	200.04
348.891	189.88
349.272	187.34
349.653	212.74
350.034	291.49
350.414	240.69
350.795	271.17
351.176	268.63
351.556	342.29
351.937	281.33
352.317	286.41
352.698	357.54
353.078	324.51
353.459	316.89
353.839	347.37
354.219	370.24
354.599	334.67
354.98	347.37
355.36	324.51
355.74	344.83
356.12	415.96
356.5	255.93
356.88	375.32
357.26	342.29
357.64	291.49
358.02	296.57
358.399	288.95
358.779	362.62
359.159	276.25
359.539	321.97
359.918	339.75
360.298	349.91
360.677	306.73
361.057	294.03
361.436	316.89
361.816	319.43
362.195	339.75
362.574	294.03
362.954	271.17
363.333	360.08
363.712	314.35
364.091	278.79
364.47	271.17
364.849	281.33
365.228	238.15
365.607	245.77
365.986	273.71
366.365	271.17
366.744	301.65
367.123	329.59
367.501	268.63
367.88	281.33
368.259	230.52
368.637	306.73
369.016	334.67
369.394	294.03
369.773	266.09
370.151	245.77
370.53	344.83
370.908	413.42
371.286	291.49
371.665	319.43
372.043	329.59
372.421	281.33
372.799	362.62
373.177	316.89
373.555	390.56
373.933	446.44
374.311	448.98
374.689	443.9
375.067	446.44
375.445	476.93
375.823	494.71
376.2	573.45
376.578	565.83
376.956	631.88
377.333	662.36
377.711	713.17
378.088	675.06
378.466	789.37
378.843	796.99
379.22	863.04
379.598	842.72
379.975	832.56
380.352	931.62
380.73	929.08
381.107	941.78
381.484	1017.99
381.861	941.78
382.238	1109.44
382.615	1122.14
382.992	1256.77
383.369	1305.04
383.746	1459.99
384.122	1467.61
384.499	1594.62
384.876	1627.64
385.252	1564.14
385.629	1759.73
386.006	1747.03
386.382	1658.13
386.759	1747.03
387.135	1790.22
387.512	1797.84
387.888	1841.02
388.264	1899.45
388.641	2023.92
389.017	1960.41
389.393	1912.15
389.769	1990.89
390.145	1907.07
390.521	1868.96
390.897	1912.15
391.273	2006.13
391.649	1871.5
392.025	1846.1
392.401	1825.78
392.777	1828.32
393.152	1838.48
393.528	1797.84
393.904	1764.81
394.279	1744.49
394.655	1754.65
395.03	1653.04
395.406	1673.37
395.781	1602.24
396.157	1592.08
396.532	1581.92
396.907	1470.15
397.283	1470.15
397.658	1470.15
398.033	1409.18
398.408	1332.98
398.783	1317.74
399.158	1317.74
399.533	1297.41
399.908	1287.25
400.283	1299.95
400.658	1236.45
401.033	1277.09
401.407	1160.24
401.782	1221.21
402.157	1099.28
402.531	1150.08
402.906	1139.92
403.28	1081.5
403.655	1152.62
404.029	1132.3
404.404	1071.34
404.778	918.92
405.153	979.89
405.527	1051.01
405.901	979.89
406.275	918.92
406.649	924
407.023	939.24
407.397	949.41
407.771	802.07
408.145	979.89
408.519	814.77
408.893	908.76
409.267	908.76
409.641	870.66
410.015	822.39
410.388	873.2
410.762	827.47
411.136	796.99
411.509	713.17
411.883	733.49
412.256	733.49
412.63	817.31
413.003	827.47
413.376	766.51
413.75	695.38
414.123	766.51
414.496	786.83
414.869	761.43
415.242	746.19
415.615	736.03
415.988	715.71
416.361	695.38
416.734	682.68
417.107	578.53
417.48	675.06
417.853	659.82
418.226	639.5
418.598	669.98
418.971	616.64
419.344	659.82
419.716	697.92
420.089	601.4
420.461	581.07
420.834	601.4
421.206	591.23
421.578	591.23
421.951	634.42
422.323	593.78
422.695	573.45
423.067	609.02
423.439	573.45
423.812	603.94
424.184	669.98
424.556	634.42
424.928	601.4
425.299	588.69
425.671	542.97
426.043	565.83
426.415	522.65
426.787	537.89
427.158	621.72
427.53	492.17
427.902	479.47
428.273	507.41
428.645	555.67
429.016	578.53
429.387	502.33
429.759	471.84
430.13	560.75
430.501	479.47
430.873	489.63
431.244	507.41
431.615	471.84
431.986	532.81
432.357	522.65
432.728	695.38
433.099	499.79
433.47	502.33
433.841	451.52
434.212	476.93
434.583	487.09
434.953	415.96
435.324	476.93
435.695	380.4
436.065	423.58
436.436	413.42
436.806	494.71
437.177	484.55
437.547	487.09
437.918	443.9
438.288	504.87
438.658	418.5
439.028	489.63
439.399	454.06
439.769	408.34
440.139	530.27
440.509	487.09
440.879	441.36
441.249	418.5
441.619	451.52
441.989	380.4
442.359	433.74
442.728	355
443.098	395.64
443.468	390.56
443.838	426.12
444.207	377.86
444.577	428.66
444.946	423.58
445.316	360.08
445.685	438.82
446.055	400.72
446.424	360.08
446.793	423.58
447.163	385.48
447.532	370.24
447.901	451.52
448.27	390.56
448.639	459.14
449.008	377.86
449.377	410.88
449.746	355
450.115	390.56
450.484	375.32
450.853	405.8
451.221	395.64
451.59	433.74
451.959	451.52
452.327	393.1
452.696	388.02
453.065	489.63
453.433	418.5
453.801	421.04
454.17	342.29
454.538	400.72
454.907	355
455.275	405.8
455.643	441.36
456.011	321.97
456.379	456.6
456.747	377.86
457.115	347.37
457.483	360.08
457.851	393.1
458.219	367.7
458.587	365.16
458.955	380.4
459.323	385.48
459.69	337.21
460.058	405.8
460.426	357.54
460.793	314.35
461.161	357.54
461.528	294.03
461.896	388.02
462.263	355
462.631	418.5
462.998	355
463.365	337.21
463.732	319.43
464.1	367.7
464.467	349.91
464.834	438.82
465.201	355
465.568	436.28
465.935	385.48
466.302	390.56
466.669	344.83
467.035	423.58
467.402	342.29
467.769	382.94
468.136	395.64
468.502	342.29
468.869	332.13
469.235	352.45
469.602	382.94
469.968	403.26
470.335	301.65
470.701	362.62
471.067	403.26
471.434	403.26
471.8	266.09
472.166	311.81
472.532	337.21
472.898	377.86
473.264	372.78
473.63	355
473.996	372.78
474.362	385.48
474.728	339.75
475.094	347.37
475.46	342.29
475.825	357.54
476.191	398.18
476.557	268.63
476.922	380.4
477.288	327.05
477.653	380.4
478.019	400.72
478.384	339.75
478.749	349.91
479.115	329.59
479.48	410.88
479.845	375.32
480.21	380.4
480.576	324.51
480.941	329.59
481.306	421.04
481.671	332.13
482.036	273.71
482.401	306.73
482.765	344.83
483.13	365.16
483.495	398.18
483.86	357.54
484.224	339.75
484.589	342.29
484.954	347.37
485.318	370.24
485.683	410.88
486.047	349.91
486.412	398.18
486.776	400.72
487.14	278.79
487.504	400.72
487.869	375.32
488.233	461.68
488.597	344.83
488.961	334.67
489.325	370.24
489.689	377.86
490.053	324.51
490.417	398.18
490.781	347.37
491.145	370.24
491.508	319.43
491.872	352.45
492.236	355
492.599	385.48
492.963	278.79
493.327	380.4
493.69	372.78
494.054	408.34
494.417	347.37
494.78	380.4
495.144	370.24
495.507	428.66
495.87	405.8
496.233	380.4
496.596	446.44
496.959	299.11
497.322	370.24
497.685	433.74
498.048	410.88
498.411	367.7
498.774	431.2
499.137	415.96
499.5	408.34
499.862	466.76
500.225	385.48
500.588	405.8
500.95	342.29
501.313	344.83
501.675	327.05
502.038	377.86
502.4	398.18
502.762	362.62
503.125	316.89
503.487	400.72
503.849	436.28
504.211	410.88
504.574	393.1
504.936	395.64
505.298	339.75
505.66	388.02
506.022	360.08
506.383	428.66
506.745	382.94
507.107	415.96
507.469	451.52
507.831	304.19
508.192	299.11
508.554	311.81
508.915	347.37
509.277	360.08
509.638	403.26
510	263.55
510.361	372.78
510.723	355
511.084	390.56
511.445	316.89
511.806	377.86
512.167	357.54
512.529	332.13
512.89	400.72
513.251	400.72
513.612	365.16
513.972	375.32
514.333	276.25
514.694	314.35
515.055	304.19
515.416	418.5
515.776	327.05
516.137	375.32
516.498	352.45
516.858	443.9
517.219	309.27
517.579	380.4
517.94	271.17
518.3	382.94
518.66	337.21
519.021	365.16
519.381	355
519.741	382.94
520.101	337.21
520.461	375.32
520.821	367.7
521.181	327.05
521.541	327.05
521.901	294.03
522.261	296.57
522.621	309.27
522.981	349.91
523.34	400.72
523.7	301.65
524.06	380.4
524.419	365.16
524.779	294.03
525.138	324.51
525.498	311.81
525.857	329.59
526.216	352.45
526.576	347.37
526.935	306.73
527.294	296.57
527.653	334.67
528.013	250.85
528.372	339.75
528.731	334.67
529.09	319.43
529.449	271.17
529.807	393.1
530.166	309.27
530.525	306.73
530.884	385.48
531.243	388.02
531.601	352.45
531.96	360.08
532.318	385.48
532.677	388.02
533.035	324.51
533.394	347.37
533.752	355
534.111	316.89
534.469	365.16
534.827	357.54
535.185	375.32
535.543	352.45
535.902	385.48
536.26	398.18
536.618	400.72
536.976	372.78
537.334	342.29
537.691	337.21
538.049	390.56
538.407	385.48
538.765	337.21
539.122	337.21
539.48	314.35
539.838	355
540.195	352.45
540.553	446.44
540.91	344.83
541.268	423.58
541.625	362.62
541.982	342.29
542.34	403.26
542.697	281.33
543.054	372.78
543.411	357.54
543.768	342.29
544.125	352.45
544.482	281.33
544.839	327.05
545.196	334.67
545.553	327.05
545.91	372.78
546.267	296.57
546.623	329.59
546.98	367.7
547.337	329.59
547.693	393.1
548.05	395.64
548.406	400.72
548.763	370.24
549.119	309.27
549.475	327.05
549.832	245.77
550.188	339.75
550.544	370.24
550.9	410.88
551.256	415.96
551.612	339.75
551.968	329.59
552.324	365.16
552.68	365.16
553.036	398.18
553.392	294.03
553.748	344.83
554.104	423.58
554.459	347.37
554.815	375.32
555.17	388.02
555.526	433.74
555.882	352.45
556.237	288.95
556.592	362.62
556.948	334.67
557.303	337.21
557.658	286.41
558.014	349.91
558.369	316.89
558.724	347.37
559.079	365.16
559.434	360.08
559.789	349.91
560.144	390.56
560.499	385.48
560.854	327.05
561.209	370.24
561.563	339.75
561.918	324.51
562.273	382.94
562.627	288.95
562.982	344.83
563.336	395.64
563.691	337.21
564.045	337.21
564.4	339.75
564.754	337.21
565.108	316.89
565.463	344.83
565.817	375.32
566.171	309.27
566.525	329.59
566.879	385.48
567.233	398.18
567.587	327.05
567.941	385.48
568.295	243.23
568.649	347.37
569.002	319.43
569.356	375.32
569.71	393.1
570.064	332.13
570.417	319.43
570.771	299.11
571.124	347.37
571.478	377.86
571.831	382.94
572.184	344.83
572.538	319.43
572.891	329.59
573.244	324.51
573.597	291.49
573.95	286.41
574.304	415.96
574.657	309.27
575.01	306.73
575.362	316.89
575.715	370.24
576.068	321.97
576.421	360.08
576.774	395.64
577.126	370.24
577.479	344.83
577.832	352.45
578.184	365.16
578.537	301.65
578.889	355
579.242	357.54
579.594	413.42
579.946	321.97
580.299	347.37
580.651	342.29
581.003	319.43
581.355	342.29
581.707	347.37
582.059	370.24
582.411	291.49
582.763	319.43
583.115	413.42
583.467	299.11
583.819	375.32
584.171	367.7
584.522	426.12
584.874	352.45
585.226	304.19
585.577	347.37
585.929	253.39
586.28	337.21
586.632	316.89
586.983	342.29
587.334	299.11
587.686	316.89
588.037	380.4
588.388	431.2
588.739	372.78
589.09	385.48
589.441	294.03
589.792	319.43
590.143	329.59
590.494	408.34
590.845	372.78
591.196	413.42
591.547	324.51
591.897	365.16
592.248	334.67
592.599	377.86
592.949	362.62
593.3	393.1
593.65	337.21
594.001	352.45
594.351	319.43
594.702	316.89
595.052	327.05
595.402	339.75
595.752	352.45
596.102	349.91
596.453	415.96
596.803	314.35
597.153	304.19
597.503	321.97
597.853	344.83
598.202	240.69
598.552	301.65
598.902	332.13
599.252	382.94
599.601	418.5
599.951	347.37
600.301	301.65
600.65	377.86
601	306.73
601.349	370.24
601.699	309.27
602.048	352.45
602.397	390.56
602.747	355
603.096	349.91
603.445	334.67
603.794	398.18
604.143	314.35
604.492	306.73
604.841	355
605.19	327.05
605.539	349.91
605.888	347.37
606.237	278.79
606.585	235.6
606.934	360.08
607.283	294.03
607.631	334.67
607.98	309.27
608.328	380.4
608.677	339.75
609.025	332.13
609.374	367.7
609.722	304.19
610.07	360.08
610.418	334.67
610.767	342.29
611.115	334.67
611.463	321.97
611.811	344.83
612.159	393.1
612.507	281.33
612.855	362.62
613.202	296.57
613.55	311.81
613.898	266.09
614.246	377.86
614.593	286.41
614.941	294.03
615.288	352.45
615.636	390.56
615.983	294.03
616.331	385.48
616.678	321.97
617.026	388.02
617.373	355
617.72	271.17
618.067	321.97
618.414	408.34
618.761	395.64
619.108	306.73
619.455	347.37
619.802	347.37
620.149	360.08
620.496	337.21
620.843	304.19
621.19	370.24
621.536	355
621.883	380.4
622.23	375.32
622.576	393.1
622.923	365.16
623.269	327.05
623.616	380.4
623.962	347.37
624.308	372.78
624.655	291.49
625.001	390.56
625.347	400.72
625.693	283.87
626.039	332.13
626.385	245.77
626.731	334.67
627.077	339.75
627.423	362.62
627.769	296.57
628.115	329.59
628.46	372.78
628.806	299.11
629.152	362.62
629.497	304.19
629.843	263.55
630.189	357.54
630.534	365.16
630.879	291.49
631.225	281.33
631.57	321.97
631.915	334.67
632.261	291.49
632.606	327.05
632.951	281.33
633.296	357.54
633.641	382.94
633.986	316.89
634.331	349.91
634.676	342.29
635.021	304.19
635.365	382.94
635.71	309.27
636.055	248.31
636.4	276.25
636.744	271.17
637.089	337.21
637.433	334.67
637.778	334.67
638.122	248.31
638.466	327.05
638.811	375.32
639.155	306.73
639.499	438.82
639.843	370.24
640.188	355
640.532	316.89
640.876	344.83
641.22	273.71
641.564	334.67
641.908	245.77
642.251	319.43
642.595	372.78
642.939	291.49
643.283	393.1
643.626	294.03
643.97	314.35
644.313	271.17
644.657	347.37
645	321.97
645.344	316.89
645.687	377.86
646.03	332.13
646.374	319.43
646.717	357.54
647.06	278.79
647.403	334.67
647.746	311.81
648.089	349.91
648.432	355
648.775	319.43
649.118	362.62
649.461	291.49
649.804	355
650.146	327.05
650.489	334.67
650.832	352.45
651.174	347.37
651.517	337.21
651.859	329.59
652.202	372.78
652.544	377.86
652.887	334.67
653.229	319.43
653.571	268.63
653.913	357.54
654.256	319.43
654.598	332.13
654.94	324.51
655.282	222.9
655.624	288.95
655.966	400.72
656.308	301.65
656.649	393.1
656.991	408.34
657.333	395.64
657.675	304.19
658.016	377.86
658.358	388.02
658.699	360.08
659.041	342.29
659.382	342.29
659.724	294.03
660.065	299.11
660.406	344.83
660.748	271.17
661.089	357.54
661.43	393.1
661.771	380.4
662.112	271.17
662.453	332.13
662.794	344.83
663.135	332.13
663.476	294.03
663.817	286.41
664.157	240.69
664.498	327.05
664.839	367.7
665.179	306.73
665.52	319.43
665.86	332.13
666.201	243.23
666.541	355
666.882	344.83
667.222	324.51
667.562	291.49
667.903	337.21
668.243	296.57
668.583	337.21
668.923	377.86
669.263	382.94
669.603	375.32
669.943	288.95
670.283	385.48
670.623	370.24
670.963	276.25
671.302	342.29
671.642	319.43
671.982	281.33
672.321	309.27
672.661	365.16
673	286.41
673.34	304.19
673.679	352.45
674.019	365.16
674.358	388.02
674.697	309.27
675.036	296.57
675.376	342.29
675.715	393.1
676.054	365.16
676.393	278.79
676.732	304.19
677.071	372.78
677.41	337.21
677.748	347.37
678.087	283.87
678.426	377.86
678.765	245.77
679.103	288.95
679.442	324.51
679.78	352.45
680.119	334.67
680.457	385.48
680.796	324.51
681.134	347.37
681.472	342.29
681.811	311.81
682.149	423.58
682.487	352.45
682.825	324.51
683.163	271.17
683.501	301.65
683.839	352.45
684.177	337.21
684.515	316.89
684.853	296.57
685.191	271.17
685.528	337.21
685.866	339.75
686.204	410.88
686.541	344.83
686.879	413.42
687.216	395.64
687.554	294.03
687.891	299.11
688.228	388.02
688.566	291.49
688.903	337.21
689.24	367.7
689.577	324.51
689.914	360.08
690.251	408.34
690.588	299.11
690.925	349.91
691.262	306.73
691.599	314.35
691.936	294.03
692.273	385.48
692.609	294.03
692.946	278.79
693.282	327.05
693.619	321.97
693.956	372.78
694.292	342.29
694.628	375.32
694.965	349.91
695.301	393.1
695.637	332.13
695.974	306.73
696.31	266.09
696.646	319.43
696.982	398.18
697.318	276.25
697.654	299.11
697.99	395.64
698.326	349.91
698.662	299.11
698.997	304.19
699.333	385.48
699.669	311.81
700.004	319.43
700.34	344.83
700.675	393.1
701.011	306.73
701.346	342.29
701.682	294.03
702.017	347.37
702.352	321.97
702.688	400.72
703.023	337.21
703.358	357.54
703.693	304.19
704.028	281.33
704.363	339.75
704.698	349.91
705.033	268.63
705.368	352.45
705.703	388.02
706.037	329.59
706.372	339.75
706.707	405.8
707.041	342.29
707.376	355
707.71	309.27
708.045	349.91
708.379	296.57
708.714	377.86
709.048	296.57
709.382	390.56
709.716	309.27
710.051	375.32
710.385	410.88
710.719	375.32
711.053	344.83
711.387	304.19
711.721	367.7
712.055	375.32
712.388	311.81
712.722	342.29
713.056	337.21
713.39	309.27
713.723	321.97
714.057	403.26
714.39	352.45
714.724	365.16
715.057	334.67
715.391	362.62
715.724	403.26
716.057	347.37
716.39	337.21
716.724	327.05
717.057	337.21
717.39	271.17
717.723	288.95
718.056	344.83
718.389	339.75
718.722	405.8
719.055	372.78
719.387	288.95
719.72	266.09
720.053	314.35
720.385	342.29
720.718	250.85
721.051	360.08
721.383	263.55
721.716	403.26
722.048	306.73
722.38	428.66
722.713	380.4
723.045	276.25
723.377	362.62
723.709	294.03
724.041	334.67
724.373	278.79
724.705	375.32
725.037	347.37
725.369	321.97
725.701	332.13
726.033	314.35
726.365	316.89
726.696	390.56
727.028	301.65
727.36	367.7
727.691	342.29
728.023	405.8
728.354	426.12
728.686	408.34
729.017	278.79
729.348	296.57
729.68	301.65
730.011	291.49
730.342	309.27
730.673	344.83
731.004	324.51
731.335	423.58
731.666	342.29
731.997	319.43
732.328	372.78
732.659	332.13
732.99	296.57
733.32	342.29
733.651	334.67
733.982	301.65
734.312	316.89
734.643	339.75
734.973	301.65
735.304	327.05
735.634	301.65
735.965	294.03
736.295	395.64
736.625	342.29
736.955	395.64
737.285	291.49
737.616	276.25
737.946	286.41
738.276	337.21
738.605	321.97
738.935	337.21
739.265	344.83
739.595	278.79
739.925	380.4
740.254	377.86
740.584	258.47
740.914	306.73
741.243	344.83
741.573	344.83
741.902	273.71
742.232	380.4
742.561	339.75
742.89	301.65
743.22	357.54
743.549	291.49
743.878	339.75
744.207	410.88
744.536	266.09
744.865	304.19
745.194	321.97
745.523	395.64
745.852	334.67
746.181	329.59
746.509	332.13
746.838	372.78
747.167	276.25
747.495	311.81
747.824	339.75
748.152	357.54
748.481	362.62
748.809	365.16
749.138	342.29
749.466	385.48
749.794	344.83
750.122	357.54
750.451	337.21
750.779	372.78
751.107	362.62
751.435	337.21
751.763	324.51
752.091	263.55
752.419	352.45
752.746	271.17
753.074	309.27
753.402	321.97
753.73	296.57
754.057	337.21
754.385	306.73
754.712	309.27
755.04	321.97
755.367	309.27
755.695	309.27
756.022	304.19
756.349	253.39
756.676	377.86
757.004	370.24
757.331	395.64
757.658	311.81
757.985	276.25
758.312	294.03
758.639	319.43
758.966	286.41
759.292	306.73
759.619	355
759.946	276.25
760.273	355
760.599	309.27
760.926	324.51
761.252	266.09
761.579	334.67
761.905	357.54
762.232	324.51
762.558	316.89
762.884	309.27
763.21	347.37
763.537	365.16
763.863	347.37
764.189	405.8
764.515	278.79
764.841	365.16
765.167	367.7
765.493	339.75
765.818	342.29
766.144	390.56
766.47	311.81
766.796	355
767.121	319.43
767.447	311.81
767.772	263.55
768.098	261.01
768.423	311.81
768.749	324.51
769.074	321.97
769.399	321.97
769.725	301.65
770.05	418.5
770.375	393.1
770.7	372.78
771.025	306.73
771.35	332.13
771.675	324.51
772	311.81
772.325	332.13
772.649	309.27
772.974	347.37
773.299	235.6
773.624	281.33
773.948	428.66
774.273	278.79
774.597	329.59
774.922	339.75
775.246	332.13
775.57	329.59
775.895	278.79
776.219	258.47
776.543	339.75
776.867	418.5
777.191	385.48
777.515	410.88
777.839	288.95
778.163	370.24
778.487	329.59
778.811	347.37
779.135	294.03
779.458	360.08
779.782	324.51
780.106	385.48
780.429	375.32
780.753	210.2
781.076	288.95
781.4	347.37
781.723	382.94
782.047	327.05
782.37	413.42
782.693	299.11
783.016	410.88
783.339	321.97
783.663	278.79
783.986	306.73
784.309	304.19
784.632	299.11
784.954	367.7
785.277	365.16
785.6	360.08
785.923	347.37
786.245	304.19
786.568	309.27
786.891	372.78
787.213	349.91
787.536	355
787.858	357.54
788.181	294.03
788.503	372.78
788.825	339.75
789.147	357.54
789.47	365.16
789.792	342.29
790.114	347.37
790.436	360.08
790.758	309.27
791.08	255.93
791.402	357.54
791.724	309.27
792.045	299.11
792.367	227.98
792.689	349.91
793.01	309.27
793.332	339.75
793.653	390.56
793.975	334.67
794.296	304.19
794.618	294.03
794.939	263.55
795.26	344.83
795.582	316.89
795.903	245.77
796.224	281.33
796.545	357.54
796.866	362.62
797.187	370.24
797.508	283.87
797.829	271.17
798.15	299.11
798.471	337.21
798.791	400.72
799.112	337.21
799.433	306.73
799.753	217.82
800.074	360.08
800.394	319.43
800.715	299.11
801.035	365.16
801.355	344.83
801.676	355
801.996	309.27
802.316	299.11
802.636	342.29
802.956	332.13
803.276	286.41
803.596	299.11
803.916	334.67
804.236	352.45
804.556	413.42
804.876	319.43
805.195	339.75
805.515	342.29
805.835	291.49
806.154	306.73
806.474	380.4
806.793	319.43
807.113	266.09
807.432	296.57
807.751	390.56
808.071	344.83
808.39	304.19
808.709	334.67
809.028	283.87
809.347	334.67
809.666	316.89
809.985	342.29
810.304	357.54
810.623	352.45
810.942	377.86
811.261	344.83
811.579	352.45
811.898	294.03
812.217	342.29
812.535	329.59
812.854	321.97
813.172	296.57
813.491	352.45
813.809	352.45
814.127	400.72
814.446	296.57
814.764	380.4
815.082	311.81
815.4	342.29
815.718	324.51
816.036	390.56
816.354	288.95
816.672	362.62
816.99	357.54
817.308	271.17
817.625	324.51
817.943	365.16
818.261	281.33
818.578	390.56
818.896	362.62
819.213	327.05
819.531	311.81
819.848	377.86
820.166	344.83
820.483	352.45
820.8	360.08
821.117	337.21
821.435	385.48
821.752	342.29
822.069	321.97
822.386	324.51
822.703	344.83
823.02	332.13
823.336	321.97
823.653	286.41
823.97	306.73
824.287	301.65
824.603	306.73
824.92	342.29
825.236	380.4
825.553	304.19
825.869	327.05
826.186	426.12
826.502	362.62
826.818	324.51
827.135	291.49
827.451	329.59
827.767	255.93
828.083	352.45
828.399	337.21
828.715	332.13
829.031	304.19
829.347	370.24
829.663	296.57
829.979	288.95
830.294	306.73
830.61	362.62
830.926	304.19
831.241	248.31
831.557	309.27
831.872	304.19
832.188	311.81
832.503	261.01
832.818	385.48
833.134	355
833.449	306.73
833.764	291.49
834.079	337.21
834.394	352.45
834.709	342.29
835.024	339.75
835.339	306.73
835.654	334.67
835.969	276.25
836.284	327.05
836.598	294.03
836.913	344.83
837.228	367.7
837.542	385.48
837.857	344.83
838.171	347.37
838.485	403.26
838.8	309.27
839.114	311.81
839.428	342.29
839.743	380.4
840.057	327.05
840.371	304.19
840.685	306.73
840.999	311.81
841.313	334.67
841.627	349.91
841.941	306.73
842.254	375.32
842.568	398.18
842.882	337.21
843.196	360.08
843.509	319.43
843.823	362.62
844.136	319.43
844.45	288.95
844.763	319.43
845.076	349.91
845.39	286.41
845.703	405.8
846.016	355
846.329	288.95
846.642	339.75
846.955	344.83
847.268	398.18
847.581	377.86
847.894	314.35
848.207	299.11
848.52	377.86
848.832	294.03
849.145	268.63
849.458	215.28
849.77	329.59
850.083	365.16
850.395	276.25
850.708	334.67
851.02	410.88
851.332	410.88
851.645	352.45
851.957	309.27
852.269	377.86
852.581	273.71
852.893	344.83
853.205	286.41
853.517	375.32
853.829	319.43
854.141	337.21
854.453	357.54
854.765	349.91
855.076	316.89
855.388	288.95
855.7	400.72
856.011	278.79
856.323	349.91
856.634	334.67
856.945	365.16
857.257	390.56
857.568	334.67
857.879	334.67
858.191	418.5
858.502	367.7
858.813	339.75
859.124	327.05
859.435	347.37
859.746	355
860.057	288.95
860.368	288.95
860.678	314.35
860.989	380.4
861.3	362.62
861.61	329.59
861.921	360.08
862.231	377.86
862.542	349.91
862.852	327.05
863.163	309.27
863.473	344.83
863.783	324.51
864.094	309.27
864.404	299.11
864.714	370.24
865.024	347.37
865.334	342.29
865.644	294.03
865.954	360.08
866.264	390.56
866.573	334.67
866.883	388.02
867.193	357.54
867.503	400.72
867.812	370.24
868.122	321.97
868.431	334.67
868.741	278.79
869.05	314.35
869.359	380.4
869.669	316.89
869.978	296.57
870.287	273.71
870.596	332.13
870.905	197.5
871.214	334.67
871.523	334.67
871.832	296.57
872.141	352.45
872.45	294.03
872.759	306.73
873.068	250.85
873.376	319.43
873.685	306.73
873.993	316.89
874.302	324.51
874.61	347.37
874.919	273.71
875.227	344.83
875.536	339.75
875.844	398.18
876.152	283.87
876.46	316.89
876.768	393.1
877.076	344.83
877.384	324.51
877.692	306.73
878	339.75
878.308	296.57
878.616	306.73
878.924	327.05
879.231	349.91
879.539	319.43
879.847	349.91
880.154	334.67
880.462	268.63
880.769	344.83
881.077	304.19
881.384	360.08
881.691	342.29
881.998	370.24
882.306	388.02
882.613	332.13
882.92	370.24
883.227	306.73
883.534	314.35
883.841	380.4
884.148	321.97
884.454	243.23
884.761	294.03
885.068	301.65
885.375	360.08
885.681	245.77
885.988	337.21
886.294	266.09
886.601	296.57
886.907	314.35
887.213	360.08
887.52	395.64
887.826	390.56
888.132	380.4
888.438	347.37
888.745	365.16
889.051	337.21
889.357	370.24
889.662	288.95
889.968	360.08
890.274	306.73
890.58	278.79
890.886	344.83
891.191	339.75
891.497	273.71
891.803	339.75
892.108	324.51
892.414	281.33
892.719	324.51
893.024	316.89
893.33	360.08
893.635	332.13
893.94	316.89
894.245	321.97
894.551	273.71
894.856	349.91
895.161	393.1
895.466	304.19
895.771	347.37
896.075	296.57
896.38	324.51
896.685	316.89
896.99	388.02
897.294	390.56
897.599	314.35
897.903	296.57
898.208	375.32
898.512	304.19
898.817	324.51
899.121	306.73
899.425	304.19
899.73	342.29
900.034	301.65
900.338	388.02
900.642	370.24
900.946	382.94
901.25	327.05
901.554	316.89
901.858	400.72
902.162	380.4
902.465	286.41
902.769	324.51
903.073	278.79
903.376	319.43
903.68	360.08
903.983	314.35
904.287	352.45
904.59	268.63
904.894	324.51
905.197	400.72
905.5	332.13
905.803	281.33
906.107	309.27
906.41	337.21
906.713	375.32
907.016	311.81
907.319	342.29
907.621	329.59
907.924	268.63
908.227	357.54
908.53	291.49
908.832	306.73
909.135	339.75
909.438	355
909.74	339.75
910.043	377.86
910.345	344.83
910.647	365.16
910.95	321.97
911.252	360.08
911.554	248.31
911.856	393.1
912.158	291.49
912.461	276.25
912.763	309.27
913.064	355
913.366	266.09
913.668	372.78
913.97	365.16
914.272	355
914.573	291.49
914.875	283.87
915.177	311.81
915.478	337.21
915.78	337.21
916.081	306.73
916.382	306.73
916.684	357.54
916.985	319.43
917.286	365.16
917.587	375.32
917.888	304.19
918.19	314.35
918.491	339.75
918.792	261.01
919.092	306.73
919.393	291.49
919.694	367.7
919.995	390.56
920.295	250.85
920.596	319.43
920.897	342.29
921.197	288.95
921.498	258.47
921.798	306.73
922.099	344.83
922.399	321.97
922.699	294.03
922.999	400.72
923.3	339.75
923.6	306.73
923.9	393.1
924.2	393.1
924.5	355
924.8	339.75
925.099	344.83
925.399	316.89
925.699	332.13
925.999	332.13
926.298	334.67
926.598	408.34
926.898	349.91
927.197	255.93
927.496	301.65
927.796	301.65
928.095	370.24
928.394	243.23
928.694	324.51
928.993	342.29
929.292	261.01
929.591	365.16
929.89	352.45
930.189	291.49
930.488	342.29
930.787	291.49
931.086	240.69
931.384	321.97
931.683	357.54
931.982	311.81
932.28	291.49
932.579	316.89
932.877	301.65
933.176	294.03
933.474	301.65
933.773	332.13
934.071	324.51
934.369	321.97
934.667	327.05
934.965	286.41
935.263	316.89
935.561	352.45
935.859	357.54
936.157	299.11
936.455	380.4
936.753	349.91
937.051	347.37
937.348	339.75
937.646	339.75
937.944	329.59
938.241	344.83
938.539	309.27
938.836	299.11
939.134	349.91
939.431	278.79
939.728	337.21
940.025	385.48
940.323	329.59
940.62	299.11
940.917	410.88
941.214	365.16
941.511	352.45
941.808	243.23
942.105	344.83
942.401	349.91
942.698	245.77
942.995	352.45
943.292	388.02
943.588	306.73
943.885	329.59
944.181	360.08
944.478	347.37
944.774	273.71
945.07	268.63
945.367	268.63
945.663	365.16
945.959	319.43
946.255	276.25
946.551	365.16
946.847	319.43
947.143	316.89
947.439	314.35
947.735	324.51
948.031	321.97
948.327	344.83
948.622	339.75
948.918	362.62
949.214	332.13
949.509	408.34
949.805	367.7
950.1	390.56
950.395	332.13
950.691	306.73
950.986	390.56
951.281	324.51
951.576	410.88
951.872	286.41
952.167	319.43
952.462	360.08
952.757	296.57
953.052	329.59
953.346	248.31
953.641	299.11
953.936	380.4
954.231	344.83
954.525	304.19
954.82	299.11
955.115	273.71
955.409	400.72
955.703	347.37
955.998	357.54
956.292	324.51
956.586	372.78
956.881	334.67
957.175	319.43
957.469	370.24
957.763	316.89
958.057	327.05
958.351	408.34
958.645	344.83
958.939	319.43
959.233	339.75
959.526	309.27
959.82	319.43
960.114	327.05
960.407	278.79
960.701	263.55
960.994	304.19
961.288	278.79
961.581	329.59
961.874	344.83
962.168	347.37
962.461	352.45
962.754	324.51
963.047	355
963.34	321.97
963.633	324.51
963.926	291.49
964.219	342.29
964.512	367.7
964.805	367.7
965.098	291.49
965.39	377.86
965.683	316.89
965.975	355
966.268	360.08
966.56	337.21
966.853	339.75
967.145	294.03
967.438	311.81
967.73	339.75
968.022	344.83
968.314	288.95
968.606	377.86
968.898	311.81
969.19	299.11
969.482	352.45
969.774	329.59
970.066	309.27
970.358	377.86
970.65	288.95
970.941	332.13
971.233	324.51
971.525	370.24
971.816	278.79
972.108	319.43
972.399	388.02
972.69	408.34
972.982	299.11
973.273	344.83
973.564	355
973.855	365.16
974.146	410.88
974.437	370.24
974.728	372.78
975.019	377.86
975.31	327.05
975.601	360.08
975.892	294.03
976.183	321.97
976.473	370.24
976.764	304.19
977.054	360.08
977.345	362.62
977.635	321.97
977.926	349.91
978.216	372.78
978.506	355
978.797	347.37
979.087	357.54
979.377	309.27
979.667	281.33
979.957	362.62
980.247	294.03
980.537	304.19
980.827	294.03
981.117	337.21
981.407	357.54
981.696	377.86
981.986	311.81
982.276	352.45
982.565	273.71
982.855	258.47
983.144	380.4
983.433	311.81
983.723	301.65
984.012	357.54
984.301	360.08
984.59	329.59
984.88	316.89
985.169	296.57
985.458	344.83
985.747	253.39
986.036	344.83
986.324	334.67
986.613	314.35
986.902	367.7
987.191	347.37
987.479	220.36
987.768	291.49
988.056	352.45
988.345	314.35
988.633	324.51
988.922	382.94
989.21	291.49
989.498	362.62
989.787	296.57
990.075	372.78
990.363	316.89
990.651	352.45
990.939	291.49
991.227	339.75
991.515	347.37
991.803	365.16
992.09	240.69
992.378	352.45
992.666	380.4
992.953	390.56
993.241	321.97
993.529	301.65
993.816	357.54
994.103	344.83
994.391	344.83
994.678	347.37
994.965	296.57
995.253	319.43
995.54	388.02
995.827	316.89
996.114	324.51
996.401	258.47
996.688	344.83
996.975	385.48
997.262	339.75
997.548	245.77
997.835	304.19
998.122	398.18
998.408	301.65
998.695	294.03
998.981	314.35
999.268	311.81
999.554	370.24
999.841	261.01
1000.127	306.73
1000.413	316.89
1000.699	276.25
1000.985	278.79
1001.271	332.13
1001.558	365.16
1001.843	319.43
1002.129	329.59
1002.415	365.16
1002.701	276.25
1002.987	382.94
1003.273	349.91
1003.558	319.43
1003.844	230.52
1004.129	329.59
1004.415	327.05
1004.7	324.51
1004.986	329.59
1005.271	311.81
1005.556	380.4
1005.841	365.16
1006.127	316.89
1006.412	324.51
1006.697	245.77
1006.982	304.19
1007.267	357.54
1007.552	314.35
1007.836	311.81
1008.121	329.59
1008.406	321.97
1008.691	339.75
1008.975	286.41
1009.26	352.45
1009.544	334.67
1009.829	337.21
1010.113	299.11
1010.398	278.79
1010.682	296.57
1010.966	337.21
1011.25	370.24
1011.535	385.48
1011.819	355
1012.103	355
1012.387	294.03
1012.671	355
1012.954	291.49
1013.238	342.29
1013.522	362.62
1013.806	342.29
1014.089	306.73
1014.373	398.18
1014.657	296.57
1014.94	311.81
1015.223	327.05
1015.507	329.59
1015.79	314.35
1016.073	339.75
1016.357	352.45
1016.64	304.19
1016.923	380.4
1017.206	388.02
1017.489	309.27
1017.772	311.81
1018.055	332.13
1018.338	314.35
1018.621	421.04
1018.903	349.91
1019.186	408.34
1019.469	306.73
1019.751	367.7
1020.034	339.75
1020.316	344.83
1020.599	344.83
1020.881	324.51
1021.163	304.19
1021.446	248.31
1021.728	327.05
1022.01	327.05
1022.292	327.05
