Data from solis1d_750mA_black_FLMS192441__7__16-09-17-464.txt Node

Date: Tue Sep 13 16:09:17 CEST 2022
User: Spectrometer
Spectrometer: FLMS19244
Trigger mode: 0
Integration Time (sec): 1.000000E-1
Scans to average: 1
Electric dark correction enabled: true
Nonlinearity correction enabled: false
Boxcar width: 0
XAxis mode: Wavelengths
Number of Pixels in Spectrum: 2048
>>>>>Begin Spectral Data<<<<<
338.974	-10.64
339.356	-10.64
339.738	-10.64
340.12	-142.73
340.502	-74.14
340.883	-104.63
341.265	-28.42
341.647	-91.92
342.029	7.14
342.41	-127.49
342.792	-97
343.173	-114.79
343.555	-13.18
343.936	40.17
344.318	14.76
344.699	19.85
345.08	136.7
345.462	96.05
345.843	88.43
346.224	101.13
346.605	73.19
346.986	136.7
347.368	121.45
347.749	217.98
348.13	179.88
348.51	195.12
348.891	167.18
349.272	215.44
349.653	243.38
350.034	299.27
350.414	327.21
350.795	217.98
351.176	291.65
351.556	306.89
351.937	314.51
352.317	301.81
352.698	324.67
353.078	339.91
353.459	322.13
353.839	296.73
354.219	278.95
354.599	342.45
354.98	238.3
355.36	233.22
355.74	367.85
356.12	350.07
356.5	334.83
356.88	355.15
357.26	347.53
357.64	362.77
358.02	273.87
358.399	408.5
358.779	347.53
359.159	322.13
359.539	294.19
359.918	296.73
360.298	332.29
360.677	367.85
361.057	324.67
361.436	291.65
361.816	256.09
362.195	304.35
362.574	276.41
362.954	347.53
363.333	278.95
363.712	301.81
364.091	322.13
364.47	327.21
364.849	327.21
365.228	233.22
365.607	289.11
365.986	329.75
366.365	286.57
366.744	327.21
367.123	281.49
367.501	289.11
367.88	294.19
368.259	256.09
368.637	306.89
369.016	273.87
369.394	273.87
369.773	317.05
370.151	327.21
370.53	276.41
370.908	291.65
371.286	225.6
371.665	342.45
372.043	271.33
372.421	291.65
372.799	431.36
373.177	372.94
373.555	319.59
373.933	472
374.311	492.33
374.689	497.41
375.067	492.33
375.445	436.44
375.823	573.61
376.2	578.69
376.578	626.96
376.956	634.58
377.333	693
377.711	710.78
378.088	743.81
378.466	731.11
378.843	842.88
379.22	830.17
379.598	865.74
379.975	820.01
380.352	906.38
380.73	992.75
381.107	995.29
381.484	926.7
381.861	1035.93
382.238	1058.79
382.615	1137.54
382.992	1246.77
383.369	1394.1
383.746	1449.99
384.122	1460.15
384.499	1551.59
384.876	1670.99
385.252	1607.48
385.629	1737.03
386.006	1681.15
386.382	1772.59
386.759	1726.87
387.135	1719.25
387.512	1693.85
387.888	1858.96
388.264	1874.2
388.641	1846.26
389.017	1927.55
389.393	1864.04
389.769	1902.14
390.145	1914.85
390.521	1991.05
390.897	1919.93
391.273	1955.49
391.649	1881.82
392.025	1833.56
392.401	1861.5
392.777	1917.39
393.152	1716.71
393.528	1764.97
393.904	1782.75
394.279	1770.05
394.655	1691.31
395.03	1637.96
395.406	1711.63
395.781	1716.71
396.157	1637.96
396.532	1538.89
396.907	1566.84
397.283	1528.73
397.658	1475.39
398.033	1439.83
398.408	1462.69
398.783	1348.38
399.158	1350.92
399.533	1343.3
399.908	1289.95
400.283	1155.32
400.658	1274.71
401.033	1206.13
401.407	1195.96
401.782	1206.13
402.157	1178.18
402.531	1117.22
402.906	1198.51
403.28	1101.98
403.655	1142.62
404.029	1013.07
404.404	997.83
404.778	997.83
405.153	1086.74
405.527	949.56
405.901	888.6
406.275	931.78
406.649	921.62
407.023	982.59
407.397	990.21
407.771	893.68
408.145	878.44
408.519	898.76
408.893	888.6
409.267	888.6
409.641	845.42
410.015	883.52
410.388	949.56
410.762	827.63
411.136	837.79
411.509	779.37
411.883	738.73
412.256	685.38
412.63	624.42
413.003	766.67
413.376	746.35
413.75	756.51
414.123	736.19
414.496	726.03
414.869	700.62
415.242	680.3
415.615	659.98
415.988	736.19
416.361	710.78
416.734	621.88
417.107	687.92
417.48	642.2
417.853	726.03
418.226	667.6
418.598	611.72
418.971	614.26
419.344	616.8
419.716	609.18
420.089	609.18
420.461	611.72
420.834	588.85
421.206	639.66
421.578	713.32
421.951	632.04
422.323	632.04
422.695	560.91
423.067	647.28
423.439	515.19
423.812	616.8
424.184	596.47
424.556	560.91
424.928	487.24
425.299	527.89
425.671	558.37
426.043	543.13
426.415	530.43
426.787	642.2
427.158	550.75
427.53	530.43
427.902	466.92
428.273	535.51
428.645	494.87
429.016	408.5
429.387	560.91
429.759	510.11
430.13	548.21
430.501	466.92
430.873	459.3
431.244	474.54
431.615	464.38
431.986	464.38
432.357	428.82
432.728	738.73
433.099	492.33
433.47	482.16
433.841	497.41
434.212	505.03
434.583	507.57
434.953	395.8
435.324	472
435.695	459.3
436.065	568.53
436.436	403.42
436.806	474.54
437.177	456.76
437.547	423.74
437.918	505.03
438.288	507.57
438.658	385.64
439.028	459.3
439.399	482.16
439.769	502.49
440.139	433.9
440.509	433.9
440.879	459.3
441.249	487.24
441.619	390.72
441.989	411.04
442.359	426.28
442.728	484.7
443.098	479.62
443.468	477.08
443.838	466.92
444.207	428.82
444.577	497.41
444.946	423.74
445.316	408.5
445.685	489.79
446.055	418.66
446.424	469.46
446.793	441.52
447.163	444.06
447.532	423.74
447.901	383.1
448.27	525.35
448.639	487.24
449.008	441.52
449.377	441.52
449.746	446.6
450.115	472
450.484	337.37
450.853	405.96
451.221	421.2
451.59	408.5
451.959	380.56
452.327	337.37
452.696	388.18
453.065	350.07
453.433	367.85
453.801	365.31
454.17	413.58
454.538	408.5
454.907	431.36
455.275	444.06
455.643	332.29
456.011	385.64
456.379	398.34
456.747	400.88
457.115	365.31
457.483	405.96
457.851	398.34
458.219	327.21
458.587	502.49
458.955	347.53
459.323	357.69
459.69	388.18
460.058	352.61
460.426	431.36
460.793	378.02
461.161	388.18
461.528	388.18
461.896	314.51
462.263	385.64
462.631	378.02
462.998	403.42
463.365	357.69
463.732	322.13
464.1	372.94
464.467	393.26
464.834	314.51
465.201	327.21
465.568	395.8
465.935	390.72
466.302	395.8
466.669	423.74
467.035	388.18
467.402	408.5
467.769	370.4
468.136	383.1
468.502	370.4
468.869	489.79
469.235	383.1
469.602	390.72
469.968	375.48
470.335	405.96
470.701	327.21
471.067	370.4
471.434	385.64
471.8	281.49
472.166	317.05
472.532	403.42
472.898	411.04
473.264	311.97
473.63	400.88
473.996	362.77
474.362	365.31
474.728	431.36
475.094	390.72
475.46	395.8
475.825	375.48
476.191	383.1
476.557	390.72
476.922	329.75
477.288	378.02
477.653	357.69
478.019	365.31
478.384	431.36
478.749	339.91
479.115	301.81
479.48	327.21
479.845	311.97
480.21	482.16
480.576	380.56
480.941	385.64
481.306	332.29
481.671	284.03
482.036	375.48
482.401	431.36
482.765	347.53
483.13	395.8
483.495	438.98
483.86	322.13
484.224	375.48
484.589	332.29
484.954	342.45
485.318	342.45
485.683	431.36
486.047	393.26
486.412	461.84
486.776	380.56
487.14	329.75
487.504	400.88
487.869	395.8
488.233	365.31
488.597	400.88
488.961	390.72
489.325	436.44
489.689	322.13
490.053	367.85
490.417	385.64
490.781	344.99
491.145	327.21
491.508	360.23
491.872	413.58
492.236	317.05
492.599	403.42
492.963	398.34
493.327	421.2
493.69	395.8
494.054	378.02
494.417	416.12
494.78	388.18
495.144	416.12
495.507	408.5
495.87	332.29
496.233	383.1
496.596	357.69
496.959	352.61
497.322	367.85
497.685	405.96
498.048	278.95
498.411	378.02
498.774	390.72
499.137	378.02
499.5	403.42
499.862	319.59
500.225	367.85
500.588	355.15
500.95	372.94
501.313	431.36
501.675	299.27
502.038	459.3
502.4	413.58
502.762	375.48
503.125	385.64
503.487	426.28
503.849	362.77
504.211	461.84
504.574	347.53
504.936	337.37
505.298	352.61
505.66	426.28
506.022	456.76
506.383	306.89
506.745	454.22
507.107	421.2
507.469	332.29
507.831	408.5
508.192	408.5
508.554	400.88
508.915	405.96
509.277	350.07
509.638	362.77
510	372.94
510.361	405.96
510.723	393.26
511.084	395.8
511.445	390.72
511.806	360.23
512.167	393.26
512.529	365.31
512.89	342.45
513.251	365.31
513.612	355.15
513.972	385.64
514.333	383.1
514.694	319.59
515.055	352.61
515.416	423.74
515.776	362.77
516.137	400.88
516.498	365.31
516.858	385.64
517.219	329.75
517.579	426.28
517.94	411.04
518.3	393.26
518.66	337.37
519.021	390.72
519.381	372.94
519.741	395.8
520.101	329.75
520.461	342.45
520.821	355.15
521.181	339.91
521.541	276.41
521.901	380.56
522.261	319.59
522.621	393.26
522.981	350.07
523.34	286.57
523.7	395.8
524.06	375.48
524.419	411.04
524.779	400.88
525.138	378.02
525.498	266.25
525.857	342.45
526.216	395.8
526.576	344.99
526.935	367.85
527.294	388.18
527.653	416.12
528.013	367.85
528.372	327.21
528.731	428.82
529.09	408.5
529.449	403.42
529.807	383.1
530.166	408.5
530.525	352.61
530.884	408.5
531.243	350.07
531.601	400.88
531.96	474.54
532.318	339.91
532.677	311.97
533.035	365.31
533.394	370.4
533.752	395.8
534.111	344.99
534.469	416.12
534.827	413.58
535.185	355.15
535.543	408.5
535.902	306.89
536.26	347.53
536.618	385.64
536.976	357.69
537.334	362.77
537.691	322.13
538.049	367.85
538.407	337.37
538.765	291.65
539.122	329.75
539.48	365.31
539.838	413.58
540.195	378.02
540.553	344.99
540.91	350.07
541.268	367.85
541.625	360.23
541.982	347.53
542.34	352.61
542.697	319.59
543.054	337.37
543.411	273.87
543.768	322.13
544.125	334.83
544.482	355.15
544.839	418.66
545.196	484.7
545.553	461.84
545.91	378.02
546.267	332.29
546.623	378.02
546.98	289.11
547.337	385.64
547.693	317.05
548.05	370.4
548.406	286.57
548.763	334.83
549.119	428.82
549.475	352.61
549.832	421.2
550.188	342.45
550.544	408.5
550.9	438.98
551.256	329.75
551.612	294.19
551.968	344.99
552.324	337.37
552.68	393.26
553.036	411.04
553.392	372.94
553.748	378.02
554.104	367.85
554.459	339.91
554.815	380.56
555.17	319.59
555.526	378.02
555.882	398.34
556.237	436.44
556.592	426.28
556.948	400.88
557.303	322.13
557.658	372.94
558.014	271.33
558.369	342.45
558.724	339.91
559.079	344.99
559.434	375.48
559.789	314.51
560.144	390.72
560.499	380.56
560.854	383.1
561.209	423.74
561.563	301.81
561.918	411.04
562.273	273.87
562.627	329.75
562.982	329.75
563.336	411.04
563.691	278.95
564.045	383.1
564.4	416.12
564.754	400.88
565.108	360.23
565.463	360.23
565.817	395.8
566.171	378.02
566.525	294.19
566.879	350.07
567.233	390.72
567.587	362.77
567.941	423.74
568.295	301.81
568.649	339.91
569.002	304.35
569.356	304.35
569.71	385.64
570.064	329.75
570.417	284.03
570.771	357.69
571.124	291.65
571.478	367.85
571.831	405.96
572.184	352.61
572.538	357.69
572.891	294.19
573.244	372.94
573.597	372.94
573.95	319.59
574.304	301.81
574.657	342.45
575.01	360.23
575.362	329.75
575.715	395.8
576.068	324.67
576.421	385.64
576.774	339.91
577.126	350.07
577.479	383.1
577.832	372.94
578.184	286.57
578.537	375.48
578.889	334.83
579.242	355.15
579.594	355.15
579.946	367.85
580.299	357.69
580.651	317.05
581.003	347.53
581.355	281.49
581.707	403.42
582.059	378.02
582.411	306.89
582.763	327.21
583.115	324.67
583.467	390.72
583.819	362.77
584.171	301.81
584.522	383.1
584.874	311.97
585.226	319.59
585.577	355.15
585.929	380.56
586.28	350.07
586.632	390.72
586.983	324.67
587.334	276.41
587.686	436.44
588.037	446.6
588.388	375.48
588.739	378.02
589.09	372.94
589.441	301.81
589.792	408.5
590.143	322.13
590.494	383.1
590.845	273.87
591.196	278.95
591.547	342.45
591.897	370.4
592.248	314.51
592.599	286.57
592.949	405.96
593.3	370.4
593.65	365.31
594.001	367.85
594.351	484.7
594.702	342.45
595.052	390.72
595.402	332.29
595.752	337.37
596.102	273.87
596.453	355.15
596.803	309.43
597.153	329.75
597.503	357.69
597.853	388.18
598.202	347.53
598.552	395.8
598.902	314.51
599.252	388.18
599.601	383.1
599.951	362.77
600.301	332.29
600.65	352.61
601	383.1
601.349	416.12
601.699	355.15
602.048	385.64
602.397	390.72
602.747	411.04
603.096	337.37
603.445	423.74
603.794	271.33
604.143	360.23
604.492	299.27
604.841	332.29
605.19	324.67
605.539	339.91
605.888	228.14
606.237	355.15
606.585	304.35
606.934	357.69
607.283	319.59
607.631	339.91
607.98	342.45
608.328	296.73
608.677	337.37
609.025	278.95
609.374	329.75
609.722	339.91
610.07	383.1
610.418	261.17
610.767	365.31
611.115	385.64
611.463	355.15
611.811	400.88
612.159	314.51
612.507	327.21
612.855	342.45
613.202	337.37
613.55	324.67
613.898	337.37
614.246	383.1
614.593	421.2
614.941	271.33
615.288	393.26
615.636	301.81
615.983	339.91
616.331	370.4
616.678	365.31
617.026	278.95
617.373	380.56
617.72	385.64
618.067	405.96
618.414	372.94
618.761	329.75
619.108	400.88
619.455	352.61
619.802	408.5
620.149	344.99
620.496	385.64
620.843	365.31
621.19	233.22
621.536	413.58
621.883	362.77
622.23	322.13
622.576	362.77
622.923	317.05
623.269	355.15
623.616	334.83
623.962	314.51
624.308	299.27
624.655	388.18
625.001	418.66
625.347	347.53
625.693	251
626.039	334.83
626.385	301.81
626.731	301.81
627.077	357.69
627.423	329.75
627.769	352.61
628.115	299.27
628.46	344.99
628.806	357.69
629.152	400.88
629.497	319.59
629.843	329.75
630.189	357.69
630.534	413.58
630.879	350.07
631.225	319.59
631.57	375.48
631.915	383.1
632.261	355.15
632.606	334.83
632.951	360.23
633.296	311.97
633.641	426.28
633.986	403.42
634.331	378.02
634.676	334.83
635.021	344.99
635.365	327.21
635.71	350.07
636.055	383.1
636.4	281.49
636.744	357.69
637.089	393.26
637.433	421.2
637.778	350.07
638.122	263.71
638.466	398.34
638.811	319.59
639.155	441.52
639.499	375.48
639.843	332.29
640.188	347.53
640.532	395.8
640.876	339.91
641.22	357.69
641.564	395.8
641.908	291.65
642.251	357.69
642.595	329.75
642.939	317.05
643.283	291.65
643.626	421.2
643.97	352.61
644.313	431.36
644.657	357.69
645	304.35
645.344	268.79
645.687	278.95
646.03	360.23
646.374	266.25
646.717	332.29
647.06	284.03
647.403	365.31
647.746	329.75
648.089	286.57
648.432	355.15
648.775	347.53
649.118	347.53
649.461	284.03
649.804	337.37
650.146	342.45
650.489	342.45
650.832	332.29
651.174	347.53
651.517	372.94
651.859	365.31
652.202	360.23
652.544	360.23
652.887	276.41
653.229	248.46
653.571	352.61
653.913	309.43
654.256	355.15
654.598	322.13
654.94	375.48
655.282	344.99
655.624	355.15
655.966	398.34
656.308	309.43
656.649	276.41
656.991	347.53
657.333	398.34
657.675	362.77
658.016	370.4
658.358	342.45
658.699	342.45
659.041	306.89
659.382	309.43
659.724	350.07
660.065	395.8
660.406	324.67
660.748	388.18
661.089	284.03
661.43	309.43
661.771	251
662.112	317.05
662.453	352.61
662.794	418.66
663.135	360.23
663.476	344.99
663.817	423.74
664.157	284.03
664.498	408.5
664.839	319.59
665.179	393.26
665.52	350.07
665.86	454.22
666.201	367.85
666.541	400.88
666.882	284.03
667.222	314.51
667.562	314.51
667.903	403.42
668.243	360.23
668.583	306.89
668.923	423.74
669.263	311.97
669.603	324.67
669.943	284.03
670.283	362.77
670.623	309.43
670.963	380.56
671.302	362.77
671.642	311.97
671.982	304.35
672.321	395.8
672.661	339.91
673	309.43
673.34	355.15
673.679	352.61
674.019	317.05
674.358	299.27
674.697	405.96
675.036	413.58
675.376	339.91
675.715	291.65
676.054	314.51
676.393	296.73
676.732	314.51
677.071	375.48
677.41	309.43
677.748	337.37
678.087	342.45
678.426	352.61
678.765	327.21
679.103	294.19
679.442	362.77
679.78	370.4
680.119	395.8
680.457	393.26
680.796	378.02
681.134	344.99
681.472	339.91
681.811	372.94
682.149	299.27
682.487	311.97
682.825	357.69
683.163	370.4
683.501	380.56
683.839	319.59
684.177	350.07
684.515	286.57
684.853	258.63
685.191	324.67
685.528	370.4
685.866	375.48
686.204	337.37
686.541	299.27
686.879	317.05
687.216	360.23
687.554	378.02
687.891	337.37
688.228	380.56
688.566	317.05
688.903	304.35
689.24	352.61
689.577	332.29
689.914	314.51
690.251	332.29
690.588	388.18
690.925	294.19
691.262	319.59
691.599	327.21
691.936	299.27
692.273	418.66
692.609	372.94
692.946	289.11
693.282	271.33
693.619	304.35
693.956	388.18
694.292	334.83
694.628	309.43
694.965	278.95
695.301	327.21
695.637	357.69
695.974	347.53
696.31	314.51
696.646	324.67
696.982	301.81
697.318	367.85
697.654	357.69
697.99	372.94
698.326	306.89
698.662	344.99
698.997	296.73
699.333	352.61
699.669	339.91
700.004	332.29
700.34	317.05
700.675	311.97
701.011	258.63
701.346	289.11
701.682	370.4
702.017	362.77
702.352	329.75
702.688	355.15
703.023	329.75
703.358	329.75
703.693	375.48
704.028	355.15
704.363	322.13
704.698	314.51
705.033	385.64
705.368	347.53
705.703	276.41
706.037	436.44
706.372	372.94
706.707	332.29
707.041	322.13
707.376	301.81
707.71	362.77
708.045	355.15
708.379	365.31
708.714	350.07
709.048	344.99
709.382	304.35
709.716	347.53
710.051	362.77
710.385	304.35
710.719	286.57
711.053	367.85
711.387	403.42
711.721	375.48
712.055	337.37
712.388	296.73
712.722	230.68
713.056	365.31
713.39	256.09
713.723	372.94
714.057	362.77
714.39	360.23
714.724	296.73
715.057	357.69
715.391	400.88
715.724	411.04
716.057	375.48
716.39	266.25
716.724	347.53
717.057	299.27
717.39	268.79
717.723	225.6
718.056	306.89
718.389	342.45
718.722	411.04
719.055	334.83
719.387	367.85
719.72	301.81
720.053	309.43
720.385	324.67
720.718	367.85
721.051	388.18
721.383	329.75
721.716	360.23
722.048	332.29
722.38	372.94
722.713	327.21
723.045	309.43
723.377	395.8
723.709	380.56
724.041	319.59
724.373	352.61
724.705	339.91
725.037	388.18
725.369	299.27
725.701	355.15
726.033	400.88
726.365	355.15
726.696	383.1
727.028	446.6
727.36	291.65
727.691	324.67
728.023	332.29
728.354	319.59
728.686	322.13
729.017	339.91
729.348	311.97
729.68	375.48
730.011	329.75
730.342	344.99
730.673	360.23
731.004	350.07
731.335	378.02
731.666	421.2
731.997	327.21
732.328	329.75
732.659	334.83
732.99	301.81
733.32	360.23
733.651	342.45
733.982	319.59
734.312	383.1
734.643	370.4
734.973	339.91
735.304	217.98
735.634	284.03
735.965	339.91
736.295	273.87
736.625	314.51
736.955	350.07
737.285	337.37
737.616	339.91
737.946	372.94
738.276	225.6
738.605	324.67
738.935	286.57
739.265	319.59
739.595	360.23
739.925	332.29
740.254	403.42
740.584	327.21
740.914	380.56
741.243	324.67
741.573	365.31
741.902	334.83
742.232	317.05
742.561	355.15
742.89	383.1
743.22	337.37
743.549	291.65
743.878	337.37
744.207	327.21
744.536	294.19
744.865	352.61
745.194	375.48
745.523	276.41
745.852	322.13
746.181	352.61
746.509	309.43
746.838	311.97
747.167	362.77
747.495	253.55
747.824	289.11
748.152	344.99
748.481	309.43
748.809	365.31
749.138	352.61
749.466	355.15
749.794	266.25
750.122	370.4
750.451	296.73
750.779	411.04
751.107	383.1
751.435	367.85
751.763	339.91
752.091	352.61
752.419	334.83
752.746	324.67
753.074	317.05
753.402	350.07
753.73	370.4
754.057	388.18
754.385	347.53
754.712	322.13
755.04	436.44
755.367	380.56
755.695	372.94
756.022	393.26
756.349	421.2
756.676	291.65
757.004	385.64
757.331	334.83
757.658	273.87
757.985	319.59
758.312	385.64
758.639	317.05
758.966	286.57
759.292	388.18
759.619	334.83
759.946	332.29
760.273	372.94
760.599	311.97
760.926	322.13
761.252	347.53
761.579	248.46
761.905	355.15
762.232	284.03
762.558	319.59
762.884	327.21
763.21	309.43
763.537	418.66
763.863	337.37
764.189	299.27
764.515	311.97
764.841	319.59
765.167	322.13
765.493	398.34
765.818	344.99
766.144	431.36
766.47	344.99
766.796	355.15
767.121	322.13
767.447	372.94
767.772	319.59
768.098	378.02
768.423	372.94
768.749	355.15
769.074	360.23
769.399	334.83
769.725	317.05
770.05	355.15
770.375	332.29
770.7	370.4
771.025	256.09
771.35	347.53
771.675	372.94
772	339.91
772.325	334.83
772.649	322.13
772.974	311.97
773.299	395.8
773.624	344.99
773.948	398.34
774.273	294.19
774.597	268.79
774.922	362.77
775.246	311.97
775.57	347.53
775.895	352.61
776.219	299.27
776.543	289.11
776.867	385.64
777.191	332.29
777.515	319.59
777.839	339.91
778.163	324.67
778.487	291.65
778.811	304.35
779.135	350.07
779.458	385.64
779.782	347.53
780.106	324.67
780.429	367.85
780.753	319.59
781.076	362.77
781.4	337.37
781.723	301.81
782.047	352.61
782.37	360.23
782.693	329.75
783.016	306.89
783.339	304.35
783.663	339.91
783.986	289.11
784.309	334.83
784.632	418.66
784.954	393.26
785.277	350.07
785.6	344.99
785.923	301.81
786.245	322.13
786.568	309.43
786.891	426.28
787.213	311.97
787.536	365.31
787.858	370.4
788.181	329.75
788.503	327.21
788.825	294.19
789.147	408.5
789.47	390.72
789.792	304.35
790.114	311.97
790.436	383.1
790.758	347.53
791.08	319.59
791.402	388.18
791.724	350.07
792.045	344.99
792.367	383.1
792.689	375.48
793.01	357.69
793.332	334.83
793.653	342.45
793.975	441.52
794.296	296.73
794.618	322.13
794.939	352.61
795.26	314.51
795.582	355.15
795.903	301.81
796.224	278.95
796.545	339.91
796.866	398.34
797.187	362.77
797.508	294.19
797.829	314.51
798.15	365.31
798.471	311.97
798.791	350.07
799.112	352.61
799.433	322.13
799.753	362.77
800.074	294.19
800.394	299.27
800.715	319.59
801.035	278.95
801.355	324.67
801.676	378.02
801.996	304.35
802.316	304.35
802.636	380.56
802.956	388.18
803.276	322.13
803.596	322.13
803.916	322.13
804.236	324.67
804.556	322.13
804.876	355.15
805.195	370.4
805.515	370.4
805.835	311.97
806.154	360.23
806.474	357.69
806.793	314.51
807.113	370.4
807.432	324.67
807.751	294.19
808.071	301.81
808.39	362.77
808.709	319.59
809.028	352.61
809.347	388.18
809.666	421.2
809.985	324.67
810.304	339.91
810.623	324.67
810.942	372.94
811.261	350.07
811.579	327.21
811.898	339.91
812.217	372.94
812.535	385.64
812.854	289.11
813.172	357.69
813.491	350.07
813.809	258.63
814.127	286.57
814.446	385.64
814.764	306.89
815.082	436.44
815.4	319.59
815.718	322.13
816.036	367.85
816.354	311.97
816.672	337.37
816.99	390.72
817.308	329.75
817.625	311.97
817.943	329.75
818.261	388.18
818.578	385.64
818.896	314.51
819.213	334.83
819.531	334.83
819.848	357.69
820.166	342.45
820.483	352.61
820.8	317.05
821.117	367.85
821.435	372.94
821.752	289.11
822.069	375.48
822.386	342.45
822.703	423.74
823.02	334.83
823.336	375.48
823.653	372.94
823.97	360.23
824.287	324.67
824.603	301.81
824.92	367.85
825.236	370.4
825.553	360.23
825.869	271.33
826.186	334.83
826.502	296.73
826.818	324.67
827.135	370.4
827.451	329.75
827.767	418.66
828.083	291.65
828.399	337.37
828.715	339.91
829.031	395.8
829.347	317.05
829.663	304.35
829.979	306.89
830.294	289.11
830.61	378.02
830.926	301.81
831.241	327.21
831.557	317.05
831.872	319.59
832.188	271.33
832.503	294.19
832.818	301.81
833.134	311.97
833.449	380.56
833.764	329.75
834.079	362.77
834.394	289.11
834.709	324.67
835.024	385.64
835.339	289.11
835.654	319.59
835.969	390.72
836.284	388.18
836.598	362.77
836.913	324.67
837.228	360.23
837.542	355.15
837.857	372.94
838.171	329.75
838.485	317.05
838.8	284.03
839.114	342.45
839.428	304.35
839.743	375.48
840.057	306.89
840.371	342.45
840.685	365.31
840.999	347.53
841.313	276.41
841.627	342.45
841.941	370.4
842.254	347.53
842.568	362.77
842.882	372.94
843.196	329.75
843.509	355.15
843.823	332.29
844.136	390.72
844.45	319.59
844.763	289.11
845.076	317.05
845.39	365.31
845.703	248.46
846.016	344.99
846.329	304.35
846.642	367.85
846.955	311.97
847.268	329.75
847.581	296.73
847.894	357.69
848.207	352.61
848.52	370.4
848.832	390.72
849.145	378.02
849.458	357.69
849.77	334.83
850.083	360.23
850.395	360.23
850.708	337.37
851.02	337.37
851.332	403.42
851.645	355.15
851.957	299.27
852.269	332.29
852.581	296.73
852.893	334.83
853.205	276.41
853.517	299.27
853.829	289.11
854.141	291.65
854.453	357.69
854.765	372.94
855.076	344.99
855.388	309.43
855.7	350.07
856.011	372.94
856.323	360.23
856.634	393.26
856.945	360.23
857.257	329.75
857.568	294.19
857.879	268.79
858.191	294.19
858.502	304.35
858.813	309.43
859.124	296.73
859.435	365.31
859.746	423.74
860.057	261.17
860.368	309.43
860.678	362.77
860.989	301.81
861.3	350.07
861.61	334.83
861.921	350.07
862.231	329.75
862.542	263.71
862.852	299.27
863.163	256.09
863.473	385.64
863.783	344.99
864.094	337.37
864.404	258.63
864.714	337.37
865.024	322.13
865.334	296.73
865.644	378.02
865.954	375.48
866.264	317.05
866.573	314.51
866.883	291.65
867.193	291.65
867.503	337.37
867.812	327.21
868.122	276.41
868.431	268.79
868.741	324.67
869.05	367.85
869.359	347.53
869.669	367.85
869.978	329.75
870.287	367.85
870.596	322.13
870.905	327.21
871.214	291.65
871.523	314.51
871.832	311.97
872.141	299.27
872.45	357.69
872.759	370.4
873.068	286.57
873.376	304.35
873.685	299.27
873.993	342.45
874.302	304.35
874.61	291.65
874.919	322.13
875.227	339.91
875.536	375.48
875.844	347.53
876.152	360.23
876.46	355.15
876.768	258.63
877.076	317.05
877.384	322.13
877.692	350.07
878	372.94
878.308	268.79
878.616	352.61
878.924	344.99
879.231	334.83
879.539	294.19
879.847	299.27
880.154	365.31
880.462	296.73
880.769	342.45
881.077	347.53
881.384	253.55
881.691	317.05
881.998	372.94
882.306	339.91
882.613	352.61
882.92	276.41
883.227	327.21
883.534	360.23
883.841	380.56
884.148	319.59
884.454	378.02
884.761	352.61
885.068	395.8
885.375	314.51
885.681	319.59
885.988	342.45
886.294	309.43
886.601	332.29
886.907	296.73
887.213	375.48
887.52	314.51
887.826	334.83
888.132	375.48
888.438	342.45
888.745	403.42
889.051	383.1
889.357	281.49
889.662	362.77
889.968	258.63
890.274	344.99
890.58	370.4
890.886	329.75
891.191	370.4
891.497	355.15
891.803	291.65
892.108	344.99
892.414	284.03
892.719	350.07
893.024	362.77
893.33	314.51
893.635	322.13
893.94	261.17
894.245	339.91
894.551	375.48
894.856	296.73
895.161	360.23
895.466	380.56
895.771	309.43
896.075	367.85
896.38	306.89
896.685	365.31
896.99	329.75
897.294	375.48
897.599	327.21
897.903	332.29
898.208	352.61
898.512	314.51
898.817	352.61
899.121	347.53
899.425	294.19
899.73	431.36
900.034	317.05
900.338	334.83
900.642	327.21
900.946	352.61
901.25	197.66
901.554	342.45
901.858	327.21
902.162	372.94
902.465	339.91
902.769	350.07
903.073	278.95
903.376	342.45
903.68	370.4
903.983	294.19
904.287	334.83
904.59	355.15
904.894	380.56
905.197	334.83
905.5	317.05
905.803	352.61
906.107	317.05
906.41	294.19
906.713	327.21
907.016	378.02
907.319	319.59
907.621	271.33
907.924	342.45
908.227	362.77
908.53	372.94
908.832	294.19
909.135	375.48
909.438	370.4
909.74	243.38
910.043	284.03
910.345	306.89
910.647	362.77
910.95	329.75
911.252	413.58
911.554	342.45
911.856	296.73
912.158	334.83
912.461	243.38
912.763	344.99
913.064	324.67
913.366	291.65
913.668	408.5
913.97	301.81
914.272	332.29
914.573	352.61
914.875	314.51
915.177	367.85
915.478	390.72
915.78	339.91
916.081	355.15
916.382	398.34
916.684	418.66
916.985	258.63
917.286	370.4
917.587	332.29
917.888	403.42
918.19	317.05
918.491	309.43
918.792	319.59
919.092	309.43
919.393	355.15
919.694	317.05
919.995	411.04
920.295	324.67
920.596	309.43
920.897	347.53
921.197	311.97
921.498	258.63
921.798	352.61
922.099	355.15
922.399	301.81
922.699	324.67
922.999	360.23
923.3	299.27
923.6	332.29
923.9	350.07
924.2	301.81
924.5	314.51
924.8	309.43
925.099	344.99
925.399	294.19
925.699	268.79
925.999	352.61
926.298	339.91
926.598	337.37
926.898	296.73
927.197	380.56
927.496	309.43
927.796	370.4
928.095	449.14
928.394	362.77
928.694	278.95
928.993	395.8
929.292	319.59
929.591	332.29
929.89	294.19
930.189	339.91
930.488	347.53
930.787	314.51
931.086	319.59
931.384	378.02
931.683	380.56
931.982	357.69
932.28	347.53
932.579	370.4
932.877	322.13
933.176	360.23
933.474	332.29
933.773	327.21
934.071	299.27
934.369	309.43
934.667	390.72
934.965	344.99
935.263	286.57
935.561	385.64
935.859	294.19
936.157	355.15
936.455	296.73
936.753	388.18
937.051	281.49
937.348	418.66
937.646	327.21
937.944	306.89
938.241	393.26
938.539	360.23
938.836	378.02
939.134	327.21
939.431	322.13
939.728	268.79
940.025	294.19
940.323	372.94
940.62	367.85
940.917	344.99
941.214	278.95
941.511	311.97
941.808	329.75
942.105	342.45
942.401	286.57
942.698	324.67
942.995	314.51
943.292	284.03
943.588	289.11
943.885	357.69
944.181	357.69
944.478	372.94
944.774	372.94
945.07	421.2
945.367	327.21
945.663	372.94
945.959	405.96
946.255	319.59
946.551	324.67
946.847	306.89
947.143	309.43
947.439	357.69
947.735	304.35
948.031	352.61
948.327	311.97
948.622	263.71
948.918	301.81
949.214	342.45
949.509	278.95
949.805	294.19
950.1	352.61
950.395	334.83
950.691	294.19
950.986	324.67
951.281	362.77
951.576	339.91
951.872	372.94
952.167	296.73
952.462	322.13
952.757	339.91
953.052	329.75
953.346	334.83
953.641	306.89
953.936	334.83
954.231	273.87
954.525	375.48
954.82	372.94
955.115	367.85
955.409	317.05
955.703	286.57
955.998	301.81
956.292	319.59
956.586	296.73
956.881	362.77
957.175	327.21
957.469	329.75
957.763	350.07
958.057	332.29
958.351	360.23
958.645	352.61
958.939	344.99
959.233	334.83
959.526	421.2
959.82	329.75
960.114	370.4
960.407	372.94
960.701	317.05
960.994	375.48
961.288	339.91
961.581	314.51
961.874	273.87
962.168	291.65
962.461	301.81
962.754	289.11
963.047	296.73
963.34	306.89
963.633	268.79
963.926	258.63
964.219	294.19
964.512	342.45
964.805	296.73
965.098	334.83
965.39	309.43
965.683	383.1
965.975	365.31
966.268	322.13
966.56	383.1
966.853	365.31
967.145	350.07
967.438	261.17
967.73	273.87
968.022	395.8
968.314	327.21
968.606	344.99
968.898	339.91
969.19	362.77
969.482	362.77
969.774	383.1
970.066	357.69
970.358	360.23
970.65	324.67
970.941	334.83
971.233	319.59
971.525	347.53
971.816	355.15
972.108	311.97
972.399	327.21
972.69	375.48
972.982	296.73
973.273	327.21
973.564	324.67
973.855	347.53
974.146	357.69
974.437	352.61
974.728	372.94
975.019	337.37
975.31	372.94
975.601	372.94
975.892	400.88
976.183	314.51
976.473	301.81
976.764	284.03
977.054	319.59
977.345	385.64
977.635	367.85
977.926	385.64
978.216	205.28
978.506	334.83
978.797	266.25
979.087	408.5
979.377	362.77
979.667	306.89
979.957	367.85
980.247	256.09
980.537	347.53
980.827	380.56
981.117	332.29
981.407	317.05
981.696	266.25
981.986	296.73
982.276	360.23
982.565	360.23
982.855	357.69
983.144	362.77
983.433	372.94
983.723	268.79
984.012	395.8
984.301	372.94
984.59	304.35
984.88	334.83
985.169	385.64
985.458	286.57
985.747	319.59
986.036	357.69
986.324	337.37
986.613	322.13
986.902	388.18
987.191	411.04
987.479	322.13
987.768	327.21
988.056	431.36
988.345	291.65
988.633	309.43
988.922	268.79
989.21	286.57
989.498	324.67
989.787	294.19
990.075	329.75
990.363	370.4
990.651	317.05
990.939	342.45
991.227	347.53
991.515	258.63
991.803	284.03
992.09	311.97
992.378	314.51
992.666	408.5
992.953	405.96
993.241	317.05
993.529	350.07
993.816	378.02
994.103	266.25
994.391	357.69
994.678	327.21
994.965	350.07
995.253	327.21
995.54	352.61
995.827	413.58
996.114	362.77
996.401	299.27
996.688	362.77
996.975	284.03
997.262	344.99
997.548	278.95
997.835	360.23
998.122	278.95
998.408	291.65
998.695	251
998.981	304.35
999.268	299.27
999.554	385.64
999.841	360.23
1000.127	375.48
1000.413	317.05
1000.699	370.4
1000.985	245.92
1001.271	309.43
1001.558	337.37
1001.843	291.65
1002.129	405.96
1002.415	383.1
1002.701	304.35
1002.987	266.25
1003.273	339.91
1003.558	311.97
1003.844	304.35
1004.129	362.77
1004.415	291.65
1004.7	243.38
1004.986	334.83
1005.271	352.61
1005.556	426.28
1005.841	319.59
1006.127	301.81
1006.412	352.61
1006.697	395.8
1006.982	337.37
1007.267	304.35
1007.552	360.23
1007.836	278.95
1008.121	352.61
1008.406	322.13
1008.691	281.49
1008.975	309.43
1009.26	284.03
1009.544	324.67
1009.829	380.56
1010.113	355.15
1010.398	304.35
1010.682	347.53
1010.966	296.73
1011.25	360.23
1011.535	347.53
1011.819	337.37
1012.103	291.65
1012.387	347.53
1012.671	319.59
1012.954	352.61
1013.238	332.29
1013.522	380.56
1013.806	352.61
1014.089	370.4
1014.373	278.95
1014.657	324.67
1014.94	324.67
1015.223	334.83
1015.507	360.23
1015.79	360.23
1016.073	337.37
1016.357	388.18
1016.64	367.85
1016.923	319.59
1017.206	314.51
1017.489	413.58
1017.772	347.53
1018.055	327.21
1018.338	263.71
1018.621	296.73
1018.903	360.23
1019.186	337.37
1019.469	322.13
1019.751	418.66
1020.034	367.85
1020.316	314.51
1020.599	347.53
1020.881	299.27
1021.163	301.81
1021.446	311.97
1021.728	322.13
1022.01	322.13
1022.292	322.13
