Data from solis1d_750mA_black_FLMS192441__5__16-09-17-264.txt Node

Date: Tue Sep 13 16:09:17 CEST 2022
User: Spectrometer
Spectrometer: FLMS19244
Trigger mode: 0
Integration Time (sec): 1.000000E-1
Scans to average: 1
Electric dark correction enabled: true
Nonlinearity correction enabled: false
Boxcar width: 0
XAxis mode: Wavelengths
Number of Pixels in Spectrum: 2048
>>>>>Begin Spectral Data<<<<<
338.974	-19.69
339.356	-19.69
339.738	-19.69
340.12	-19.69
340.502	-98.43
340.883	-42.55
341.265	-75.57
341.647	-50.17
342.029	-17.15
342.41	-88.27
342.792	-50.17
343.173	-19.69
343.555	18.42
343.936	-22.23
344.318	38.74
344.699	38.74
345.08	33.66
345.462	-50.17
345.843	92.08
346.224	112.4
346.605	81.92
346.986	114.94
347.368	165.75
347.749	186.07
348.13	201.31
348.51	165.75
348.891	180.99
349.272	196.23
349.653	231.79
350.034	193.69
350.414	252.12
350.795	310.54
351.176	277.52
351.556	214.01
351.937	292.76
352.317	208.93
352.698	259.74
353.078	297.84
353.459	343.56
353.839	330.86
354.219	300.38
354.599	193.69
354.98	247.04
355.36	274.98
355.74	285.14
356.12	315.62
356.5	313.08
356.88	358.81
357.26	353.72
357.64	302.92
358.02	302.92
358.399	290.22
358.779	262.28
359.159	366.43
359.539	285.14
359.918	300.38
360.298	244.5
360.677	310.54
361.057	313.08
361.436	353.72
361.816	305.46
362.195	277.52
362.574	361.35
362.954	330.86
363.333	208.93
363.712	302.92
364.091	338.48
364.47	264.82
364.849	269.9
365.228	285.14
365.607	341.02
365.986	297.84
366.365	302.92
366.744	254.66
367.123	318.16
367.501	310.54
367.88	282.6
368.259	285.14
368.637	287.68
369.016	262.28
369.394	295.3
369.773	259.74
370.151	252.12
370.53	343.56
370.908	295.3
371.286	333.4
371.665	320.7
372.043	274.98
372.421	351.18
372.799	363.89
373.177	407.07
373.555	457.87
373.933	465.49
374.311	422.31
374.689	401.99
375.067	495.98
375.445	541.7
375.823	589.96
376.2	493.44
376.578	620.45
376.956	656.01
377.333	653.47
377.711	694.11
378.088	686.49
378.466	795.72
378.843	818.58
379.22	800.8
379.598	917.65
379.975	925.27
380.352	917.65
380.73	945.59
381.107	986.24
381.484	937.97
381.861	943.05
382.238	1019.26
382.615	1136.11
382.992	1237.72
383.369	1395.21
383.746	1479.04
384.122	1461.26
384.499	1494.28
384.876	1514.6
385.252	1573.03
385.629	1621.29
386.006	1626.37
386.382	1659.4
386.759	1750.84
387.135	1743.22
387.512	1880.39
387.888	1872.77
388.264	1755.92
388.641	1948.98
389.017	1931.2
389.393	1862.61
389.769	1893.1
390.145	1814.35
390.521	1992.16
390.897	1847.37
391.273	1964.22
391.649	1903.26
392.025	1849.91
392.401	1821.97
392.777	1819.43
393.152	1816.89
393.528	1791.49
393.904	1654.31
394.279	1750.84
394.655	1755.92
395.03	1783.87
395.406	1694.96
395.781	1656.86
396.157	1578.11
396.532	1534.92
396.907	1509.52
397.283	1524.76
397.658	1451.1
398.033	1339.33
398.408	1329.17
398.783	1321.55
399.158	1288.52
399.533	1468.88
399.908	1291.06
400.283	1265.66
400.658	1242.8
401.033	1219.94
401.407	1214.86
401.782	1192
402.157	1225.02
402.531	1146.27
402.906	1085.31
403.28	1108.17
403.655	1105.63
404.029	1021.8
404.404	1103.09
404.778	1052.28
405.153	963.38
405.527	1026.88
405.901	1021.8
406.275	915.11
406.649	991.32
407.023	889.71
407.397	958.3
407.771	925.27
408.145	744.92
408.519	864.31
408.893	920.19
409.267	846.53
409.641	805.88
410.015	816.04
410.388	892.25
410.762	803.34
411.136	821.12
411.509	800.8
411.883	663.63
412.256	671.25
412.63	831.29
413.003	752.54
413.376	691.57
413.75	719.52
414.123	785.56
414.496	676.33
414.869	678.87
415.242	765.24
415.615	711.9
415.988	689.03
416.361	747.46
416.734	661.09
417.107	617.91
417.48	633.15
417.853	752.54
418.226	584.88
418.598	617.91
418.971	549.32
419.344	587.42
419.716	562.02
420.089	620.45
420.461	574.72
420.834	643.31
421.206	620.45
421.578	612.83
421.951	622.99
422.323	539.16
422.695	658.55
423.067	572.18
423.439	602.67
423.812	597.59
424.184	612.83
424.556	615.37
424.928	541.7
425.299	562.02
425.671	544.24
426.043	562.02
426.415	620.45
426.787	435.01
427.158	541.7
427.53	518.84
427.902	567.1
428.273	541.7
428.645	600.13
429.016	541.7
429.387	582.34
429.759	564.56
430.13	521.38
430.501	440.09
430.873	546.78
431.244	450.25
431.615	427.39
431.986	480.74
432.357	440.09
432.728	716.98
433.099	455.33
433.47	602.67
433.841	440.09
434.212	450.25
434.583	437.55
434.953	478.2
435.324	409.61
435.695	470.57
436.065	460.41
436.436	440.09
436.806	521.38
437.177	526.46
437.547	470.57
437.918	414.69
438.288	409.61
438.658	470.57
439.028	518.84
439.399	450.25
439.769	468.03
440.139	506.14
440.509	440.09
440.879	374.05
441.249	475.66
441.619	389.29
441.989	473.11
442.359	465.49
442.728	427.39
443.098	376.59
443.468	429.93
443.838	376.59
444.207	376.59
444.577	429.93
444.946	409.61
445.316	424.85
445.685	399.45
446.055	404.53
446.424	394.37
446.793	409.61
447.163	391.83
447.532	409.61
447.901	346.1
448.27	401.99
448.639	429.93
449.008	401.99
449.377	409.61
449.746	501.06
450.115	437.55
450.484	399.45
450.853	396.91
451.221	384.21
451.59	292.76
451.959	379.13
452.327	419.77
452.696	358.81
453.065	376.59
453.433	432.47
453.801	399.45
454.17	343.56
454.538	399.45
454.907	358.81
455.275	417.23
455.643	404.53
456.011	366.43
456.379	318.16
456.747	368.97
457.115	435.01
457.483	412.15
457.851	399.45
458.219	333.4
458.587	389.29
458.955	386.75
459.323	371.51
459.69	374.05
460.058	427.39
460.426	435.01
460.793	394.37
461.161	417.23
461.528	310.54
461.896	379.13
462.263	391.83
462.631	391.83
462.998	440.09
463.365	432.47
463.732	363.89
464.1	315.62
464.467	366.43
464.834	424.85
465.201	371.51
465.568	391.83
465.935	297.84
466.302	358.81
466.669	361.35
467.035	366.43
467.402	386.75
467.769	343.56
468.136	409.61
468.502	417.23
468.869	318.16
469.235	429.93
469.602	437.55
469.968	404.53
470.335	272.44
470.701	379.13
471.067	379.13
471.434	338.48
471.8	356.27
472.166	376.59
472.532	333.4
472.898	409.61
473.264	363.89
473.63	353.72
473.996	384.21
474.362	371.51
474.728	338.48
475.094	386.75
475.46	325.78
475.825	366.43
476.191	346.1
476.557	450.25
476.922	353.72
477.288	358.81
477.653	358.81
478.019	343.56
478.384	323.24
478.749	366.43
479.115	343.56
479.48	374.05
479.845	396.91
480.21	376.59
480.576	333.4
480.941	427.39
481.306	330.86
481.671	399.45
482.036	394.37
482.401	366.43
482.765	394.37
483.13	310.54
483.495	353.72
483.86	417.23
484.224	409.61
484.589	396.91
484.954	401.99
485.318	335.94
485.683	318.16
486.047	338.48
486.412	384.21
486.776	447.71
487.14	338.48
487.504	379.13
487.869	368.97
488.233	341.02
488.597	328.32
488.961	297.84
489.325	363.89
489.689	282.6
490.053	361.35
490.417	384.21
490.781	414.69
491.145	386.75
491.508	381.67
491.872	452.79
492.236	310.54
492.599	422.31
492.963	374.05
493.327	437.55
493.69	366.43
494.054	452.79
494.417	371.51
494.78	356.27
495.144	358.81
495.507	374.05
495.87	335.94
496.233	401.99
496.596	338.48
496.959	419.77
497.322	386.75
497.685	404.53
498.048	391.83
498.411	368.97
498.774	348.64
499.137	363.89
499.5	396.91
499.862	325.78
500.225	333.4
500.588	399.45
500.95	325.78
501.313	414.69
501.675	282.6
502.038	447.71
502.4	343.56
502.762	389.29
503.125	371.51
503.487	366.43
503.849	389.29
504.211	290.22
504.574	333.4
504.936	417.23
505.298	363.89
505.66	323.24
506.022	462.95
506.383	366.43
506.745	333.4
507.107	376.59
507.469	356.27
507.831	437.55
508.192	399.45
508.554	264.82
508.915	348.64
509.277	379.13
509.638	363.89
510	358.81
510.361	318.16
510.723	333.4
511.084	404.53
511.445	330.86
511.806	419.77
512.167	399.45
512.529	351.18
512.89	356.27
513.251	417.23
513.612	419.77
513.972	333.4
514.333	361.35
514.694	348.64
515.055	404.53
515.416	429.93
515.776	401.99
516.137	366.43
516.498	358.81
516.858	356.27
517.219	318.16
517.579	361.35
517.94	368.97
518.3	379.13
518.66	318.16
519.021	384.21
519.381	310.54
519.741	394.37
520.101	313.08
520.461	318.16
520.821	366.43
521.181	356.27
521.541	351.18
521.901	361.35
522.261	363.89
522.621	348.64
522.981	409.61
523.34	391.83
523.7	401.99
524.06	300.38
524.419	358.81
524.779	374.05
525.138	386.75
525.498	361.35
525.857	356.27
526.216	338.48
526.576	351.18
526.935	353.72
527.294	351.18
527.653	302.92
528.013	338.48
528.372	371.51
528.731	310.54
529.09	330.86
529.449	330.86
529.807	414.69
530.166	320.7
530.525	361.35
530.884	290.22
531.243	325.78
531.601	371.51
531.96	351.18
532.318	320.7
532.677	346.1
533.035	333.4
533.394	412.15
533.752	361.35
534.111	346.1
534.469	399.45
534.827	320.7
535.185	401.99
535.543	325.78
535.902	313.08
536.26	429.93
536.618	417.23
536.976	351.18
537.334	348.64
537.691	366.43
538.049	348.64
538.407	297.84
538.765	315.62
539.122	353.72
539.48	297.84
539.838	338.48
540.195	353.72
540.553	404.53
540.91	315.62
541.268	297.84
541.625	374.05
541.982	341.02
542.34	290.22
542.697	358.81
543.054	313.08
543.411	366.43
543.768	305.46
544.125	361.35
544.482	338.48
544.839	447.71
545.196	358.81
545.553	368.97
545.91	341.02
546.267	389.29
546.623	389.29
546.98	343.56
547.337	338.48
547.693	407.07
548.05	358.81
548.406	292.76
548.763	427.39
549.119	313.08
549.475	338.48
549.832	384.21
550.188	330.86
550.544	384.21
550.9	295.3
551.256	323.24
551.612	325.78
551.968	366.43
552.324	386.75
552.68	368.97
553.036	341.02
553.392	358.81
553.748	333.4
554.104	318.16
554.459	358.81
554.815	407.07
555.17	368.97
555.526	295.3
555.882	404.53
556.237	333.4
556.592	318.16
556.948	384.21
557.303	363.89
557.658	361.35
558.014	285.14
558.369	343.56
558.724	391.83
559.079	325.78
559.434	371.51
559.789	338.48
560.144	401.99
560.499	295.3
560.854	353.72
561.209	437.55
561.563	435.01
561.918	320.7
562.273	287.68
562.627	351.18
562.982	368.97
563.336	346.1
563.691	351.18
564.045	333.4
564.4	274.98
564.754	267.36
565.108	348.64
565.463	391.83
565.817	381.67
566.171	328.32
566.525	348.64
566.879	318.16
567.233	325.78
567.587	351.18
567.941	313.08
568.295	313.08
568.649	384.21
569.002	353.72
569.356	351.18
569.71	305.46
570.064	264.82
570.417	315.62
570.771	381.67
571.124	315.62
571.478	338.48
571.831	302.92
572.184	389.29
572.538	320.7
572.891	313.08
573.244	333.4
573.597	351.18
573.95	379.13
574.304	330.86
574.657	381.67
575.01	407.07
575.362	401.99
575.715	343.56
576.068	361.35
576.421	325.78
576.774	338.48
577.126	335.94
577.479	381.67
577.832	381.67
578.184	313.08
578.537	333.4
578.889	358.81
579.242	366.43
579.594	295.3
579.946	396.91
580.299	320.7
580.651	399.45
581.003	353.72
581.355	348.64
581.707	363.89
582.059	376.59
582.411	358.81
582.763	366.43
583.115	399.45
583.467	335.94
583.819	313.08
584.171	363.89
584.522	343.56
584.874	404.53
585.226	363.89
585.577	310.54
585.929	371.51
586.28	346.1
586.632	401.99
586.983	432.47
587.334	300.38
587.686	315.62
588.037	363.89
588.388	376.59
588.739	381.67
589.09	341.02
589.441	333.4
589.792	351.18
590.143	419.77
590.494	259.74
590.845	356.27
591.196	366.43
591.547	341.02
591.897	282.6
592.248	280.06
592.599	308
592.949	287.68
593.3	285.14
593.65	315.62
594.001	330.86
594.351	247.04
594.702	318.16
595.052	343.56
595.402	272.44
595.752	366.43
596.102	313.08
596.453	363.89
596.803	396.91
597.153	371.51
597.503	429.93
597.853	381.67
598.202	335.94
598.552	363.89
598.902	376.59
599.252	379.13
599.601	381.67
599.951	323.24
600.301	341.02
600.65	323.24
601	323.24
601.349	407.07
601.699	290.22
602.048	325.78
602.397	335.94
602.747	325.78
603.096	333.4
603.445	254.66
603.794	338.48
604.143	348.64
604.492	358.81
604.841	417.23
605.19	292.76
605.539	343.56
605.888	424.85
606.237	323.24
606.585	374.05
606.934	315.62
607.283	376.59
607.631	371.51
607.98	351.18
608.328	376.59
608.677	399.45
609.025	353.72
609.374	335.94
609.722	361.35
610.07	389.29
610.418	374.05
610.767	381.67
611.115	308
611.463	366.43
611.811	353.72
612.159	427.39
612.507	346.1
612.855	333.4
613.202	313.08
613.55	361.35
613.898	379.13
614.246	328.32
614.593	330.86
614.941	351.18
615.288	325.78
615.636	384.21
615.983	368.97
616.331	320.7
616.678	356.27
617.026	257.2
617.373	310.54
617.72	313.08
618.067	330.86
618.414	297.84
618.761	368.97
619.108	391.83
619.455	315.62
619.802	386.75
620.149	389.29
620.496	368.97
620.843	351.18
621.19	302.92
621.536	302.92
621.883	343.56
622.23	328.32
622.576	381.67
622.923	325.78
623.269	396.91
623.616	351.18
623.962	374.05
624.308	361.35
624.655	348.64
625.001	348.64
625.347	422.31
625.693	381.67
626.039	351.18
626.385	343.56
626.731	338.48
627.077	274.98
627.423	335.94
627.769	320.7
628.115	366.43
628.46	333.4
628.806	353.72
629.152	394.37
629.497	396.91
629.843	313.08
630.189	356.27
630.534	330.86
630.879	274.98
631.225	328.32
631.57	320.7
631.915	333.4
632.261	401.99
632.606	363.89
632.951	338.48
633.296	290.22
633.641	269.9
633.986	335.94
634.331	341.02
634.676	302.92
635.021	351.18
635.365	341.02
635.71	308
636.055	330.86
636.4	305.46
636.744	330.86
637.089	330.86
637.433	297.84
637.778	208.93
638.122	313.08
638.466	371.51
638.811	386.75
639.155	348.64
639.499	320.7
639.843	320.7
640.188	264.82
640.532	353.72
640.876	338.48
641.22	285.14
641.564	356.27
641.908	318.16
642.251	417.23
642.595	343.56
642.939	389.29
643.283	374.05
643.626	318.16
643.97	353.72
644.313	310.54
644.657	287.68
645	356.27
645.344	297.84
645.687	264.82
646.03	412.15
646.374	333.4
646.717	323.24
647.06	358.81
647.403	323.24
647.746	335.94
648.089	315.62
648.432	341.02
648.775	297.84
649.118	310.54
649.461	287.68
649.804	297.84
650.146	259.74
650.489	297.84
650.832	371.51
651.174	353.72
651.517	313.08
651.859	376.59
652.202	368.97
652.544	300.38
652.887	269.9
653.229	447.71
653.571	272.44
653.913	292.76
654.256	391.83
654.598	391.83
654.94	267.36
655.282	341.02
655.624	274.98
655.966	346.1
656.308	335.94
656.649	292.76
656.991	280.06
657.333	379.13
657.675	338.48
658.016	318.16
658.358	371.51
658.699	305.46
659.041	313.08
659.382	302.92
659.724	252.12
660.065	305.46
660.406	333.4
660.748	376.59
661.089	325.78
661.43	335.94
661.771	292.76
662.112	325.78
662.453	292.76
662.794	368.97
663.135	302.92
663.476	396.91
663.817	292.76
664.157	371.51
664.498	333.4
664.839	407.07
665.179	323.24
665.52	351.18
665.86	351.18
666.201	295.3
666.541	302.92
666.882	376.59
667.222	381.67
667.562	341.02
667.903	267.36
668.243	330.86
668.583	419.77
668.923	280.06
669.263	361.35
669.603	338.48
669.943	300.38
670.283	374.05
670.623	381.67
670.963	341.02
671.302	292.76
671.642	315.62
671.982	290.22
672.321	320.7
672.661	366.43
673	295.3
673.34	343.56
673.679	269.9
674.019	396.91
674.358	363.89
674.697	323.24
675.036	305.46
675.376	335.94
675.715	328.32
676.054	381.67
676.393	320.7
676.732	379.13
677.071	358.81
677.41	368.97
677.748	325.78
678.087	371.51
678.426	236.88
678.765	368.97
679.103	353.72
679.442	338.48
679.78	346.1
680.119	338.48
680.457	343.56
680.796	386.75
681.134	343.56
681.472	318.16
681.811	348.64
682.149	325.78
682.487	368.97
682.825	341.02
683.163	282.6
683.501	353.72
683.839	353.72
684.177	318.16
684.515	239.42
684.853	320.7
685.191	407.07
685.528	300.38
685.866	277.52
686.204	346.1
686.541	315.62
686.879	308
687.216	366.43
687.554	343.56
687.891	353.72
688.228	368.97
688.566	323.24
688.903	313.08
689.24	274.98
689.577	351.18
689.914	338.48
690.251	310.54
690.588	290.22
690.925	363.89
691.262	305.46
691.599	302.92
691.936	315.62
692.273	356.27
692.609	376.59
692.946	389.29
693.282	341.02
693.619	328.32
693.956	292.76
694.292	399.45
694.628	338.48
694.965	361.35
695.301	384.21
695.637	274.98
695.974	358.81
696.31	328.32
696.646	305.46
696.982	305.46
697.318	313.08
697.654	302.92
697.99	348.64
698.326	333.4
698.662	323.24
698.997	335.94
699.333	290.22
699.669	348.64
700.004	310.54
700.34	305.46
700.675	292.76
701.011	356.27
701.346	374.05
701.682	330.86
702.017	287.68
702.352	325.78
702.688	353.72
703.023	335.94
703.358	330.86
703.693	282.6
704.028	267.36
704.363	295.3
704.698	262.28
705.033	239.42
705.368	335.94
705.703	328.32
706.037	267.36
706.372	274.98
706.707	315.62
707.041	363.89
707.376	343.56
707.71	353.72
708.045	313.08
708.379	384.21
708.714	381.67
709.048	325.78
709.382	346.1
709.716	341.02
710.051	376.59
710.385	407.07
710.719	323.24
711.053	308
711.387	417.23
711.721	363.89
712.055	328.32
712.388	351.18
712.722	287.68
713.056	333.4
713.39	351.18
713.723	379.13
714.057	305.46
714.39	302.92
714.724	259.74
715.057	361.35
715.391	328.32
715.724	368.97
716.057	315.62
716.39	290.22
716.724	310.54
717.057	328.32
717.39	338.48
717.723	287.68
718.056	356.27
718.389	295.3
718.722	287.68
719.055	338.48
719.387	308
719.72	272.44
720.053	292.76
720.385	363.89
720.718	308
721.051	389.29
721.383	341.02
721.716	305.46
722.048	310.54
722.38	302.92
722.713	394.37
723.045	381.67
723.377	363.89
723.709	381.67
724.041	320.7
724.373	335.94
724.705	290.22
725.037	320.7
725.369	285.14
725.701	305.46
726.033	308
726.365	315.62
726.696	315.62
727.028	272.44
727.36	262.28
727.691	313.08
728.023	374.05
728.354	353.72
728.686	295.3
729.017	386.75
729.348	310.54
729.68	274.98
730.011	381.67
730.342	297.84
730.673	308
731.004	366.43
731.335	318.16
731.666	300.38
731.997	338.48
732.328	308
732.659	318.16
732.99	313.08
733.32	381.67
733.651	368.97
733.982	308
734.312	302.92
734.643	320.7
734.973	330.86
735.304	318.16
735.634	368.97
735.965	280.06
736.295	330.86
736.625	335.94
736.955	308
737.285	302.92
737.616	300.38
737.946	305.46
738.276	323.24
738.605	247.04
738.935	269.9
739.265	417.23
739.595	379.13
739.925	310.54
740.254	282.6
740.584	310.54
740.914	277.52
741.243	292.76
741.573	335.94
741.902	351.18
742.232	320.7
742.561	333.4
742.89	351.18
743.22	389.29
743.549	300.38
743.878	285.14
744.207	371.51
744.536	376.59
744.865	384.21
745.194	295.3
745.523	277.52
745.852	300.38
746.181	272.44
746.509	361.35
746.838	318.16
747.167	379.13
747.495	361.35
747.824	351.18
748.152	310.54
748.481	297.84
748.809	374.05
749.138	371.51
749.466	315.62
749.794	381.67
750.122	419.77
750.451	330.86
750.779	315.62
751.107	374.05
751.435	320.7
751.763	374.05
752.091	310.54
752.419	313.08
752.746	305.46
753.074	295.3
753.402	259.74
753.73	280.06
754.057	320.7
754.385	353.72
754.712	308
755.04	290.22
755.367	320.7
755.695	300.38
756.022	224.17
756.349	338.48
756.676	254.66
757.004	315.62
757.331	341.02
757.658	384.21
757.985	323.24
758.312	343.56
758.639	348.64
758.966	300.38
759.292	214.01
759.619	264.82
759.946	310.54
760.273	323.24
760.599	315.62
760.926	323.24
761.252	353.72
761.579	356.27
761.905	300.38
762.232	318.16
762.558	407.07
762.884	310.54
763.21	323.24
763.537	330.86
763.863	363.89
764.189	267.36
764.515	300.38
764.841	341.02
765.167	300.38
765.493	315.62
765.818	404.53
766.144	285.14
766.47	300.38
766.796	264.82
767.121	348.64
767.447	351.18
767.772	277.52
768.098	366.43
768.423	338.48
768.749	308
769.074	325.78
769.399	333.4
769.725	308
770.05	297.84
770.375	282.6
770.7	404.53
771.025	335.94
771.35	323.24
771.675	318.16
772	396.91
772.325	401.99
772.649	343.56
772.974	295.3
773.299	302.92
773.624	353.72
773.948	300.38
774.273	376.59
774.597	338.48
774.922	356.27
775.246	325.78
775.57	320.7
775.895	308
776.219	308
776.543	333.4
776.867	257.2
777.191	376.59
777.515	348.64
777.839	374.05
778.163	315.62
778.487	348.64
778.811	292.76
779.135	358.81
779.458	335.94
779.782	384.21
780.106	287.68
780.429	305.46
780.753	379.13
781.076	313.08
781.4	361.35
781.723	363.89
782.047	333.4
782.37	379.13
782.693	351.18
783.016	315.62
783.339	386.75
783.663	376.59
783.986	297.84
784.309	285.14
784.632	333.4
784.954	252.12
785.277	318.16
785.6	328.32
785.923	277.52
786.245	376.59
786.568	315.62
786.891	399.45
787.213	379.13
787.536	287.68
787.858	302.92
788.181	272.44
788.503	343.56
788.825	384.21
789.147	287.68
789.47	280.06
789.792	396.91
790.114	361.35
790.436	356.27
790.758	241.96
791.08	305.46
791.402	318.16
791.724	269.9
792.045	313.08
792.367	325.78
792.689	374.05
793.01	333.4
793.332	274.98
793.653	295.3
793.975	308
794.296	386.75
794.618	315.62
794.939	313.08
795.26	343.56
795.582	363.89
795.903	328.32
796.224	313.08
796.545	376.59
796.866	259.74
797.187	320.7
797.508	363.89
797.829	371.51
798.15	343.56
798.471	356.27
798.791	335.94
799.112	280.06
799.433	335.94
799.753	315.62
800.074	257.2
800.394	368.97
800.715	290.22
801.035	363.89
801.355	277.52
801.676	308
801.996	343.56
802.316	280.06
802.636	280.06
802.956	323.24
803.276	287.68
803.596	320.7
803.916	310.54
804.236	356.27
804.556	310.54
804.876	318.16
805.195	325.78
805.515	330.86
805.835	302.92
806.154	346.1
806.474	287.68
806.793	338.48
807.113	401.99
807.432	315.62
807.751	282.6
808.071	292.76
808.39	338.48
808.709	320.7
809.028	328.32
809.347	361.35
809.666	310.54
809.985	318.16
810.304	341.02
810.623	368.97
810.942	376.59
811.261	356.27
811.579	368.97
811.898	351.18
812.217	358.81
812.535	358.81
812.854	302.92
813.172	358.81
813.491	371.51
813.809	313.08
814.127	404.53
814.446	305.46
814.764	323.24
815.082	325.78
815.4	285.14
815.718	366.43
816.036	333.4
816.354	341.02
816.672	308
816.99	277.52
817.308	399.45
817.625	341.02
817.943	356.27
818.261	363.89
818.578	297.84
818.896	302.92
819.213	335.94
819.531	308
819.848	346.1
820.166	338.48
820.483	300.38
820.8	348.64
821.117	333.4
821.435	353.72
821.752	328.32
822.069	351.18
822.386	267.36
822.703	341.02
823.02	341.02
823.336	333.4
823.653	305.46
823.97	302.92
824.287	310.54
824.603	300.38
824.92	356.27
825.236	333.4
825.553	351.18
825.869	310.54
826.186	320.7
826.502	287.68
826.818	300.38
827.135	254.66
827.451	320.7
827.767	366.43
828.083	363.89
828.399	295.3
828.715	277.52
829.031	366.43
829.347	302.92
829.663	341.02
829.979	348.64
830.294	323.24
830.61	343.56
830.926	315.62
831.241	366.43
831.557	333.4
831.872	290.22
832.188	325.78
832.503	379.13
832.818	353.72
833.134	427.39
833.449	310.54
833.764	287.68
834.079	353.72
834.394	341.02
834.709	323.24
835.024	290.22
835.339	292.76
835.654	285.14
835.969	280.06
836.284	290.22
836.598	351.18
836.913	325.78
837.228	348.64
837.542	366.43
837.857	305.46
838.171	269.9
838.485	308
838.8	384.21
839.114	348.64
839.428	363.89
839.743	335.94
840.057	308
840.371	310.54
840.685	353.72
840.999	361.35
841.313	429.93
841.627	333.4
841.941	335.94
842.254	335.94
842.568	361.35
842.882	389.29
843.196	335.94
843.509	282.6
843.823	343.56
844.136	341.02
844.45	292.76
844.763	348.64
845.076	371.51
845.39	356.27
845.703	371.51
846.016	351.18
846.329	282.6
846.642	310.54
846.955	368.97
847.268	335.94
847.581	381.67
847.894	341.02
848.207	320.7
848.52	308
848.832	353.72
849.145	315.62
849.458	315.62
849.77	376.59
850.083	379.13
850.395	335.94
850.708	343.56
851.02	353.72
851.332	308
851.645	302.92
851.957	348.64
852.269	310.54
852.581	341.02
852.893	368.97
853.205	259.74
853.517	348.64
853.829	290.22
854.141	310.54
854.453	399.45
854.765	330.86
855.076	363.89
855.388	341.02
855.7	305.46
856.011	384.21
856.323	315.62
856.634	320.7
856.945	356.27
857.257	308
857.568	280.06
857.879	313.08
858.191	274.98
858.502	318.16
858.813	302.92
859.124	310.54
859.435	315.62
859.746	308
860.057	257.2
860.368	330.86
860.678	422.31
860.989	348.64
861.3	297.84
861.61	338.48
861.921	325.78
862.231	280.06
862.542	353.72
862.852	389.29
863.163	282.6
863.473	333.4
863.783	412.15
864.094	346.1
864.404	358.81
864.714	320.7
865.024	346.1
865.334	290.22
865.644	358.81
865.954	272.44
866.264	325.78
866.573	363.89
866.883	351.18
867.193	353.72
867.503	341.02
867.812	308
868.122	330.86
868.431	280.06
868.741	366.43
869.05	249.58
869.359	374.05
869.669	325.78
869.978	315.62
870.287	318.16
870.596	269.9
870.905	280.06
871.214	353.72
871.523	368.97
871.832	338.48
872.141	361.35
872.45	371.51
872.759	310.54
873.068	353.72
873.376	252.12
873.685	274.98
873.993	442.63
874.302	386.75
874.61	341.02
874.919	356.27
875.227	348.64
875.536	244.5
875.844	348.64
876.152	356.27
876.46	308
876.768	374.05
877.076	302.92
877.384	252.12
877.692	323.24
878	414.69
878.308	371.51
878.616	351.18
878.924	376.59
879.231	371.51
879.539	330.86
879.847	356.27
880.154	274.98
880.462	404.53
880.769	285.14
881.077	341.02
881.384	282.6
881.691	302.92
881.998	315.62
882.306	292.76
882.613	315.62
882.92	356.27
883.227	335.94
883.534	424.85
883.841	351.18
884.148	272.44
884.454	308
884.761	338.48
885.068	325.78
885.375	254.66
885.681	269.9
885.988	318.16
886.294	338.48
886.601	277.52
886.907	353.72
887.213	285.14
887.52	287.68
887.826	302.92
888.132	348.64
888.438	341.02
888.745	292.76
889.051	297.84
889.357	412.15
889.662	328.32
889.968	300.38
890.274	280.06
890.58	343.56
890.886	381.67
891.191	343.56
891.497	361.35
891.803	381.67
892.108	366.43
892.414	269.9
892.719	295.3
893.024	325.78
893.33	300.38
893.635	333.4
893.94	366.43
894.245	297.84
894.551	297.84
894.856	346.1
895.161	280.06
895.466	318.16
895.771	247.04
896.075	297.84
896.38	323.24
896.685	361.35
896.99	318.16
897.294	343.56
897.599	277.52
897.903	285.14
898.208	285.14
898.512	257.2
898.817	280.06
899.121	318.16
899.425	333.4
899.73	328.32
900.034	338.48
900.338	300.38
900.642	267.36
900.946	391.83
901.25	353.72
901.554	348.64
901.858	351.18
902.162	328.32
902.465	285.14
902.769	320.7
903.073	323.24
903.376	391.83
903.68	308
903.983	318.16
904.287	310.54
904.59	325.78
904.894	371.51
905.197	328.32
905.5	292.76
905.803	335.94
906.107	292.76
906.41	320.7
906.713	358.81
907.016	407.07
907.319	328.32
907.621	320.7
907.924	285.14
908.227	348.64
908.53	348.64
908.832	292.76
909.135	305.46
909.438	328.32
909.74	353.72
910.043	384.21
910.345	310.54
910.647	374.05
910.95	399.45
911.252	335.94
911.554	310.54
911.856	310.54
912.158	330.86
912.461	374.05
912.763	333.4
913.064	356.27
913.366	315.62
913.668	351.18
913.97	341.02
914.272	269.9
914.573	368.97
914.875	358.81
915.177	351.18
915.478	310.54
915.78	356.27
916.081	308
916.382	328.32
916.684	330.86
916.985	269.9
917.286	297.84
917.587	394.37
917.888	333.4
918.19	376.59
918.491	310.54
918.792	333.4
919.092	325.78
919.393	356.27
919.694	343.56
919.995	371.51
920.295	335.94
920.596	313.08
920.897	363.89
921.197	310.54
921.498	259.74
921.798	399.45
922.099	310.54
922.399	335.94
922.699	371.51
922.999	330.86
923.3	374.05
923.6	290.22
923.9	297.84
924.2	356.27
924.5	325.78
924.8	366.43
925.099	356.27
925.399	287.68
925.699	338.48
925.999	252.12
926.298	338.48
926.598	323.24
926.898	267.36
927.197	379.13
927.496	305.46
927.796	394.37
928.095	376.59
928.394	313.08
928.694	368.97
928.993	333.4
929.292	290.22
929.591	318.16
929.89	351.18
930.189	368.97
930.488	330.86
930.787	259.74
931.086	333.4
931.384	396.91
931.683	379.13
931.982	295.3
932.28	346.1
932.579	371.51
932.877	297.84
933.176	323.24
933.474	404.53
933.773	338.48
934.071	300.38
934.369	333.4
934.667	254.66
934.965	290.22
935.263	333.4
935.561	341.02
935.859	325.78
936.157	358.81
936.455	285.14
936.753	320.7
937.051	412.15
937.348	338.48
937.646	333.4
937.944	343.56
938.241	320.7
938.539	351.18
938.836	368.97
939.134	361.35
939.431	315.62
939.728	300.38
940.025	366.43
940.323	267.36
940.62	376.59
940.917	308
941.214	356.27
941.511	277.52
941.808	287.68
942.105	282.6
942.401	323.24
942.698	374.05
942.995	323.24
943.292	313.08
943.588	320.7
943.885	346.1
944.181	356.27
944.478	335.94
944.774	361.35
945.07	264.82
945.367	333.4
945.663	338.48
945.959	353.72
946.255	290.22
946.551	353.72
946.847	315.62
947.143	323.24
947.439	346.1
947.735	305.46
948.031	274.98
948.327	287.68
948.622	371.51
948.918	323.24
949.214	302.92
949.509	308
949.805	338.48
950.1	356.27
950.395	320.7
950.691	371.51
950.986	323.24
951.281	353.72
951.576	308
951.872	310.54
952.167	391.83
952.462	310.54
952.757	254.66
953.052	394.37
953.346	310.54
953.641	274.98
953.936	371.51
954.231	297.84
954.525	290.22
954.82	335.94
955.115	363.89
955.409	391.83
955.703	313.08
955.998	361.35
956.292	343.56
956.586	371.51
956.881	371.51
957.175	310.54
957.469	280.06
957.763	264.82
958.057	320.7
958.351	305.46
958.645	356.27
958.939	361.35
959.233	292.76
959.526	366.43
959.82	328.32
960.114	368.97
960.407	315.62
960.701	412.15
960.994	353.72
961.288	353.72
961.581	211.47
961.874	328.32
962.168	280.06
962.461	335.94
962.754	386.75
963.047	407.07
963.34	328.32
963.633	346.1
963.926	318.16
964.219	302.92
964.512	308
964.805	323.24
965.098	389.29
965.39	348.64
965.683	290.22
965.975	318.16
966.268	401.99
966.56	302.92
966.853	297.84
967.145	269.9
967.438	323.24
967.73	330.86
968.022	315.62
968.314	333.4
968.606	356.27
968.898	391.83
969.19	335.94
969.482	302.92
969.774	285.14
970.066	348.64
970.358	315.62
970.65	292.76
970.941	325.78
971.233	241.96
971.525	292.76
971.816	348.64
972.108	315.62
972.399	348.64
972.69	361.35
972.982	274.98
973.273	399.45
973.564	318.16
973.855	338.48
974.146	300.38
974.437	302.92
974.728	338.48
975.019	353.72
975.31	333.4
975.601	310.54
975.892	300.38
976.183	343.56
976.473	346.1
976.764	371.51
977.054	330.86
977.345	315.62
977.635	341.02
977.926	267.36
978.216	325.78
978.506	259.74
978.797	333.4
979.087	269.9
979.377	287.68
979.667	297.84
979.957	269.9
980.247	305.46
980.537	371.51
980.827	252.12
981.117	257.2
981.407	325.78
981.696	328.32
981.986	341.02
982.276	325.78
982.565	409.61
982.855	374.05
983.144	297.84
983.433	386.75
983.723	277.52
984.012	338.48
984.301	290.22
984.59	358.81
984.88	399.45
985.169	384.21
985.458	262.28
985.747	341.02
986.036	363.89
986.324	338.48
986.613	346.1
986.902	290.22
987.191	386.75
987.479	366.43
987.768	343.56
988.056	262.28
988.345	351.18
988.633	328.32
988.922	419.77
989.21	346.1
989.498	295.3
989.787	295.3
990.075	333.4
990.363	297.84
990.651	384.21
990.939	318.16
991.227	368.97
991.515	356.27
991.803	333.4
992.09	341.02
992.378	368.97
992.666	384.21
992.953	394.37
993.241	335.94
993.529	325.78
993.816	308
994.103	356.27
994.391	341.02
994.678	323.24
994.965	272.44
995.253	313.08
995.54	292.76
995.827	346.1
996.114	325.78
996.401	259.74
996.688	285.14
996.975	351.18
997.262	404.53
997.548	358.81
997.835	361.35
998.122	323.24
998.408	259.74
998.695	295.3
998.981	318.16
999.268	264.82
999.554	346.1
999.841	330.86
1000.127	282.6
1000.413	277.52
1000.699	343.56
1000.985	302.92
1001.271	290.22
1001.558	285.14
1001.843	368.97
1002.129	330.86
1002.415	259.74
1002.701	274.98
1002.987	287.68
1003.273	302.92
1003.558	315.62
1003.844	356.27
1004.129	308
1004.415	297.84
1004.7	290.22
1004.986	363.89
1005.271	394.37
1005.556	282.6
1005.841	429.93
1006.127	280.06
1006.412	300.38
1006.697	386.75
1006.982	244.5
1007.267	318.16
1007.552	351.18
1007.836	290.22
1008.121	282.6
1008.406	318.16
1008.691	302.92
1008.975	285.14
1009.26	330.86
1009.544	305.46
1009.829	308
1010.113	366.43
1010.398	292.76
1010.682	335.94
1010.966	333.4
1011.25	333.4
1011.535	292.76
1011.819	305.46
1012.103	313.08
1012.387	335.94
1012.671	295.3
1012.954	274.98
1013.238	292.76
1013.522	320.7
1013.806	292.76
1014.089	292.76
1014.373	302.92
1014.657	280.06
1014.94	295.3
1015.223	361.35
1015.507	300.38
1015.79	361.35
1016.073	305.46
1016.357	374.05
1016.64	310.54
1016.923	285.14
1017.206	361.35
1017.489	348.64
1017.772	280.06
1018.055	259.74
1018.338	368.97
1018.621	351.18
1018.903	338.48
1019.186	341.02
1019.469	300.38
1019.751	272.44
1020.034	290.22
1020.316	277.52
1020.599	305.46
1020.881	396.91
1021.163	310.54
1021.446	315.62
1021.728	368.97
1022.01	368.97
1022.292	368.97
