Data from solis1d_750mA_white_FLMS192441__3__16-05-24-573.txt Node

Date: Tue Sep 13 16:05:24 CEST 2022
User: Spectrometer
Spectrometer: FLMS19244
Trigger mode: 0
Integration Time (sec): 1.000000E-1
Scans to average: 1
Electric dark correction enabled: true
Nonlinearity correction enabled: false
Boxcar width: 0
XAxis mode: Wavelengths
Number of Pixels in Spectrum: 2048
>>>>>Begin Spectral Data<<<<<
338.974	0.32
339.356	0.32
339.738	0.32
340.12	-58.11
340.502	-70.81
340.883	-98.75
341.265	-80.97
341.647	-83.51
342.029	-45.41
342.41	-83.51
342.792	0.32
343.173	-32.71
343.555	-63.19
343.936	-35.25
344.318	-2.22
344.699	43.5
345.08	2.86
345.462	114.63
345.843	91.77
346.224	99.39
346.605	173.05
346.986	137.49
347.368	96.85
347.749	119.71
348.13	251.8
348.51	200.99
348.891	305.14
349.272	294.98
349.653	251.8
350.034	328.01
350.414	307.68
350.795	256.88
351.176	307.68
351.556	312.76
351.937	371.19
352.317	376.27
352.698	350.87
353.078	345.79
353.459	348.33
353.839	315.3
354.219	404.21
354.599	376.27
354.98	383.89
355.36	376.27
355.74	353.41
356.12	328.01
356.5	373.73
356.88	394.05
357.26	358.49
357.64	358.49
358.02	381.35
358.399	373.73
358.779	322.92
359.159	457.56
359.539	371.19
359.918	366.11
360.298	328.01
360.677	302.6
361.057	343.25
361.436	366.11
361.816	312.76
362.195	315.3
362.574	378.81
362.954	353.41
363.333	460.1
363.712	409.29
364.091	368.65
364.47	274.66
364.849	409.29
365.228	300.06
365.607	381.35
365.986	315.3
366.365	322.92
366.744	325.47
367.123	325.47
367.501	355.95
367.88	302.6
368.259	328.01
368.637	343.25
369.016	343.25
369.394	399.13
369.773	343.25
370.151	330.55
370.53	378.81
370.908	373.73
371.286	300.06
371.665	373.73
372.043	340.71
372.421	355.95
372.799	261.96
373.177	391.51
373.555	388.97
373.933	325.47
374.311	322.92
374.689	272.12
375.067	386.43
375.445	401.67
375.823	287.36
376.2	297.52
376.578	333.09
376.956	297.52
377.333	320.38
377.711	320.38
378.088	320.38
378.466	383.89
378.843	350.87
379.22	289.9
379.598	340.71
379.975	335.63
380.352	394.05
380.73	335.63
381.107	371.19
381.484	371.19
381.861	292.44
382.238	388.97
382.615	394.05
382.992	437.23
383.369	371.19
383.746	383.89
384.122	376.27
384.499	333.09
384.876	363.57
385.252	350.87
385.629	378.81
386.006	322.92
386.382	399.13
386.759	455.02
387.135	371.19
387.512	381.35
387.888	363.57
388.264	366.11
388.641	343.25
389.017	416.91
389.393	376.27
389.769	333.09
390.145	317.84
390.521	317.84
390.897	394.05
391.273	348.33
391.649	388.97
392.025	411.83
392.401	371.19
392.777	373.73
393.152	350.87
393.528	345.79
393.904	315.3
394.279	371.19
394.655	317.84
395.03	335.63
395.406	373.73
395.781	409.29
396.157	361.03
396.532	416.91
396.907	343.25
397.283	358.49
397.658	320.38
398.033	391.51
398.408	414.37
398.783	455.02
399.158	452.48
399.533	391.51
399.908	371.19
400.283	404.21
400.658	429.61
401.033	376.27
401.407	432.15
401.782	396.59
402.157	419.45
402.531	432.15
402.906	444.86
403.28	371.19
403.655	444.86
404.029	452.48
404.404	355.95
404.778	439.77
405.153	406.75
405.527	449.94
405.901	376.27
406.275	404.21
406.649	376.27
407.023	373.73
407.397	411.83
407.771	434.69
408.145	424.53
408.519	465.18
408.893	460.1
409.267	457.56
409.641	343.25
410.015	424.53
410.388	526.14
410.762	381.35
411.136	470.26
411.509	449.94
411.883	536.3
412.256	404.21
412.63	528.68
413.003	447.4
413.376	549
413.75	627.75
414.123	607.43
414.496	632.83
414.869	607.43
415.242	663.31
415.615	627.75
415.988	734.44
416.361	706.5
416.734	770
417.107	803.03
417.48	815.73
417.853	899.55
418.226	935.12
418.598	988.46
418.971	963.06
419.344	1128.17
419.716	1199.3
420.089	1339.01
420.461	1483.8
420.834	1359.33
421.206	1506.66
421.578	1730.2
421.951	1750.53
422.323	1862.29
422.695	1908.02
423.067	2118.86
423.439	2184.9
423.812	2388.12
424.184	2621.82
424.556	2837.74
424.928	2921.56
425.299	3157.8
425.671	3315.3
426.043	3462.63
426.415	3714.11
426.787	4049.42
427.158	4245.02
427.53	4516.82
427.902	4783.54
428.273	4943.58
428.645	5350.01
429.016	5764.06
429.387	5934.26
429.759	6521.05
430.13	6736.97
430.501	7321.22
430.873	7427.91
431.244	8029.94
431.615	8502.42
431.986	8802.16
432.357	9541.36
432.728	9975.74
433.099	10537.13
433.47	11078.19
433.841	11659.9
434.212	12454.99
434.583	12973.19
434.953	13770.82
435.324	14128.99
435.695	15124.76
436.065	16011.29
436.436	16996.89
436.806	17604.01
437.177	18686.14
437.547	19753.03
437.918	21294.94
438.288	22036.68
438.658	23451.58
439.028	24764.87
439.399	25694.59
439.769	27025.66
440.139	28265.29
440.509	28854.62
440.879	30874.09
441.249	31821.59
441.619	32634.46
441.989	34189.07
442.359	35169.59
442.728	36162.81
443.098	37628.52
443.468	37989.23
443.838	38527.75
444.207	39343.16
444.577	40397.35
444.946	40516.74
445.316	40666.62
445.685	40402.43
446.055	40844.43
446.424	40199.22
446.793	39805.48
447.163	39597.18
447.532	38494.73
447.901	37628.52
448.27	36833.43
448.639	35537.92
449.008	34453.25
449.377	33160.28
449.746	32073.07
450.115	30866.47
450.484	28999.41
450.853	28351.65
451.221	26672.57
451.59	25707.29
451.959	23860.55
452.327	23367.75
452.696	22064.62
453.065	21040.92
453.433	20187.4
453.801	18706.46
454.17	17941.85
454.538	17289.02
454.907	16361.84
455.275	15640.42
455.643	14919
456.011	14319.51
456.379	14149.31
456.747	13245
457.115	13097.66
457.483	12945.25
457.851	12340.68
458.219	12178.11
458.587	11532.89
458.955	11454.15
459.323	11098.52
459.69	11101.06
460.058	10582.85
460.426	10631.12
460.793	10201.82
461.161	10029.09
461.528	9790.31
461.896	9429.59
462.263	9312.74
462.631	9274.64
462.998	9223.84
463.365	8891.07
463.732	8548.14
464.1	8164.57
464.467	8019.78
464.834	7745.43
465.201	7618.42
465.568	7295.81
465.935	7158.64
466.302	6980.83
466.669	6803.01
467.035	6566.77
467.402	6556.61
467.769	6269.57
468.136	6018.09
468.502	5583.71
468.869	5690.4
469.235	5670.08
469.602	5479.56
469.968	5410.97
470.335	5121.39
470.701	5139.17
471.067	5032.48
471.434	5019.78
471.8	4908.01
472.166	4976.6
472.532	4956.28
472.898	4882.61
473.264	4671.77
473.63	4681.93
473.996	4798.78
474.362	4656.53
474.728	4511.74
475.094	4656.53
475.46	4549.84
475.825	4593.03
476.191	4841.97
476.557	4565.08
476.922	4567.62
477.288	4671.77
477.653	4554.92
478.019	4511.74
478.384	4466.02
478.749	4725.12
479.115	4565.08
479.48	4750.52
479.845	4646.37
480.21	4735.28
480.576	4697.17
480.941	4623.51
481.306	4638.75
481.671	4628.59
482.036	4737.82
482.401	4816.56
482.765	4920.71
483.13	4791.16
483.495	4877.53
483.86	4862.29
484.224	4819.1
484.589	5019.78
484.954	5060.43
485.318	5118.85
485.683	5309.37
486.047	5466.86
486.412	5444
486.776	5698.02
487.14	5738.66
487.504	5837.73
487.869	5972.36
488.233	6185.74
488.597	6576.93
488.961	6582.01
489.325	6899.54
489.689	7013.85
490.053	7069.74
490.417	7661.61
490.781	7857.2
491.145	8162.03
491.508	8581.16
491.872	8690.39
492.236	9137.47
492.599	9373.71
492.963	10008.76
493.327	10313.59
493.69	10750.51
494.054	11162.02
494.417	11578.62
494.78	12200.97
495.144	12541.36
495.507	13166.25
495.87	13448.21
496.233	14250.92
496.596	14543.05
496.959	15388.94
497.322	16036.69
497.685	16384.7
498.048	17004.51
498.411	18020.6
498.774	18254.3
499.137	19305.95
499.5	19509.17
499.862	20733.55
500.225	20957.09
500.588	22013.82
500.95	22737.78
501.313	23255.98
501.675	24396.54
502.038	25168.77
502.4	25534.56
502.762	26614.15
503.125	27447.34
503.487	27950.3
503.849	28854.62
504.211	29682.73
504.574	30584.5
504.936	31524.38
505.298	32588.73
505.66	33167.9
506.022	34694.57
506.383	34905.41
506.745	35700.5
507.107	36772.47
507.469	37565.01
507.831	38240.71
508.192	39231.39
508.554	40247.48
508.915	40976.52
509.277	41860.52
509.638	42432.06
510	42932.49
510.361	43420.21
510.723	44400.73
511.084	45152.63
511.445	45178.04
511.806	46506.57
512.167	47019.69
512.529	47240.69
512.89	47631.88
513.251	48564.14
513.612	48637.81
513.972	49356.69
514.333	49681.84
514.694	49770.74
515.055	50804.61
515.416	51086.58
515.776	50769.05
516.137	51632.72
516.498	52029
516.858	52824.08
517.219	52940.93
517.579	52852.03
517.94	53456.6
518.3	53588.69
518.66	53672.51
519.021	53984.96
519.381	53929.08
519.741	54597.15
520.101	55028.99
520.461	55310.95
520.821	55470.99
521.181	55524.33
521.541	55966.33
521.901	55943.47
522.261	56296.56
522.621	56271.15
522.981	56332.12
523.34	56461.67
523.7	57025.6
524.06	56708.07
524.419	56664.89
524.779	56888.43
525.138	56852.86
525.498	56946.85
525.857	56669.97
526.216	57305.02
526.576	57360.91
526.935	57434.57
527.294	57520.94
527.653	57343.12
528.013	57533.64
528.372	57129.75
528.731	57332.96
529.09	57518.4
529.449	57500.62
529.807	57358.37
530.166	57302.48
530.525	57586.99
530.884	56863.02
531.243	57579.36
531.601	57193.25
531.96	57282.16
532.318	57404.09
532.677	57246.6
533.035	57010.36
533.394	56908.75
533.752	56840.16
534.111	57053.54
534.469	56832.54
534.827	56741.09
535.185	56964.63
535.543	56852.86
535.902	56619.16
536.26	56769.04
536.618	57007.82
536.976	56779.2
537.334	56697.91
537.691	56941.77
538.049	56898.59
538.407	56769.04
538.765	56644.57
539.122	56715.69
539.48	56898.59
539.838	56761.42
540.195	56675.05
540.553	56995.12
540.91	56614.08
541.268	56766.5
541.625	57068.78
541.982	57188.17
542.34	57033.22
542.697	56969.71
543.054	56746.17
543.411	56936.69
543.768	57068.78
544.125	57335.5
544.482	56873.19
544.839	56959.55
545.196	56926.53
545.553	56992.58
545.91	57238.98
546.267	57221.19
546.623	56690.29
546.98	56936.69
547.337	56984.95
547.693	56931.61
548.05	56448.97
548.406	56870.65
548.763	56870.65
549.119	56560.74
549.475	56934.15
549.832	57104.34
550.188	56598.84
550.544	56664.89
550.9	57053.54
551.256	56738.55
551.612	57213.57
551.968	56906.21
552.324	56913.83
552.68	56939.23
553.036	56908.75
553.392	56807.14
553.748	57084.02
554.104	56906.21
554.459	56929.07
554.815	57005.28
555.17	56873.19
555.526	56878.27
555.882	57617.47
556.237	56959.55
556.592	57150.07
556.948	57434.57
557.303	57579.36
557.658	57454.89
558.014	57523.48
558.369	57429.49
558.724	57790.2
559.079	57630.17
559.434	57424.41
559.789	58049.3
560.144	57762.26
560.499	57820.69
560.854	57762.26
561.209	57886.73
561.563	57960.4
561.918	58087.41
562.273	58155.99
562.627	58463.36
562.982	58041.68
563.336	58460.82
563.691	58356.67
564.045	58252.52
564.4	58270.3
564.754	58399.85
565.108	58359.21
565.463	58247.44
565.817	58316.03
566.171	58468.44
566.525	58704.68
566.879	57988.34
567.233	58313.49
567.587	58069.63
567.941	58349.05
568.295	58044.22
568.649	57879.11
569.002	58376.99
569.356	57899.43
569.71	58247.44
570.064	57673.35
570.417	57896.89
570.771	58100.11
571.124	58125.51
571.478	57937.54
571.831	57498.08
572.184	57772.42
572.538	57249.14
572.891	57348.21
573.244	57457.43
573.597	56984.95
573.95	56903.67
574.304	56885.89
574.657	57152.61
575.01	57162.77
575.362	56880.81
575.715	56830
576.068	57073.86
576.421	56817.3
576.774	57086.56
577.126	56934.15
577.479	56842.7
577.832	56553.12
578.184	56248.29
578.537	56616.62
578.889	56352.44
579.242	56377.84
579.594	56375.3
579.946	55862.18
580.299	55811.38
580.651	55918.06
581.003	55890.12
581.355	55798.67
581.707	55973.95
582.059	55699.61
582.411	55600.54
582.763	55031.53
583.115	55834.24
583.467	55156
583.819	55156
584.171	55156
584.522	54714
584.874	55079.79
585.226	54787.67
585.577	54716.54
585.929	54371.07
586.28	54409.18
586.632	54729.24
586.983	53870.65
587.334	53982.42
587.686	53774.12
588.037	54002.74
588.388	53654.73
588.739	53758.88
589.09	53433.73
589.441	52806.3
589.792	52448.13
590.143	52379.55
590.494	51985.81
590.845	52189.03
591.196	51696.23
591.547	51045.93
591.897	51228.83
592.248	50662.36
592.599	50174.64
592.949	50263.55
593.3	50248.31
593.65	49618.33
594.001	49516.72
594.351	48739.42
594.702	48602.25
595.052	48655.59
595.402	48056.1
595.752	48188.19
596.102	47804.62
596.453	47715.71
596.803	47111.14
597.153	46435.44
597.503	45993.45
597.853	46255.09
598.202	45691.16
598.552	45358.39
598.902	45371.09
599.252	44921.47
599.601	44880.83
599.951	44253.4
600.301	43846.96
600.65	44388.03
601	43303.36
601.349	43201.75
601.699	43316.06
602.048	42178.04
602.397	42518.43
602.747	42058.65
603.096	41870.68
603.445	41855.44
603.794	40976.52
604.143	41182.28
604.492	40730.12
604.841	40615.81
605.19	39922.33
605.539	40107.77
605.888	39884.23
606.237	39272.04
606.585	38860.52
606.934	38939.27
607.283	38332.16
607.631	38210.23
607.98	37897.78
608.328	37819.03
608.677	37605.66
609.025	37392.28
609.374	36650.54
609.722	36297.45
610.07	35967.22
610.418	35692.87
610.767	35047.66
611.115	34956.21
611.463	34587.88
611.811	34183.99
612.159	33848.68
612.507	33277.13
612.855	33099.32
613.202	32924.04
613.55	32449.02
613.898	31951.14
614.246	31532
614.593	31117.95
614.941	30808.04
615.288	30437.17
615.636	29568.42
615.983	29609.06
616.331	29161.98
616.678	29001.95
617.026	28659.02
617.373	28387.22
617.72	27935.06
618.067	27538.79
618.414	27317.79
618.761	27048.52
619.108	26685.27
619.455	26393.15
619.802	26037.52
620.149	25885.11
620.496	25394.84
620.843	25153.52
621.19	24640.4
621.536	24421.94
621.883	23934.22
622.23	23913.9
622.576	23715.76
622.923	23159.46
623.269	23167.08
623.616	22359.29
623.962	22211.96
624.308	21823.3
624.655	21297.48
625.001	21675.97
625.347	21211.11
625.693	20863.1
626.039	20715.77
626.385	20461.75
626.731	20154.38
627.077	19991.81
627.423	19722.54
627.769	19735.25
628.115	18963.02
628.46	18782.67
628.806	19001.12
629.152	18221.28
629.497	18305.1
629.843	17802.14
630.189	17720.86
630.534	17540.5
630.879	17334.74
631.225	17202.65
631.57	16610.78
631.915	16717.47
632.261	16135.76
632.606	15797.91
632.951	15828.4
633.296	15533.73
633.641	15404.18
633.986	15127.3
634.331	15040.93
634.676	14893.6
635.021	14502.4
635.365	14258.54
635.71	14187.42
636.055	13829.25
636.4	13643.81
636.744	13539.66
637.089	13346.61
637.433	13245
637.778	12790.3
638.122	12876.67
638.466	12635.35
638.811	12167.95
639.155	12152.7
639.499	11784.37
639.843	12066.34
640.188	11822.48
640.532	11664.98
640.876	11322.05
641.22	11108.68
641.564	10958.8
641.908	10882.6
642.251	10885.14
642.595	10486.32
642.939	10328.83
643.283	10262.79
643.626	10158.64
643.97	9825.87
644.313	9879.21
644.657	9754.74
645	9782.68
645.344	9427.05
645.687	9421.97
646.03	9129.85
646.374	9335.61
646.717	9000.3
647.06	9000.3
647.403	8774.22
647.746	8789.46
648.089	8487.17
648.432	8568.46
648.775	8304.28
649.118	8118.84
649.461	8177.27
649.804	8073.12
650.146	8017.24
650.489	7803.86
650.832	7862.28
651.174	7653.98
651.517	7509.19
651.859	7435.53
652.202	7379.64
652.544	7288.19
652.887	7255.17
653.229	7049.41
653.571	6785.23
653.913	6914.78
654.256	6970.67
654.598	6744.59
654.94	6551.53
655.282	6424.52
655.624	6330.53
655.966	6465.16
656.308	6399.12
656.649	6013.01
656.991	6157.8
657.333	6099.37
657.675	5746.28
658.016	6109.53
658.358	5901.24
658.699	5677.7
659.041	5532.91
659.382	5421.14
659.724	5410.97
660.065	5464.32
660.406	5286.5
660.748	5344.93
661.089	5212.84
661.43	5192.52
661.771	5205.22
662.112	5075.67
662.453	4966.44
662.794	4915.63
663.135	4890.23
663.476	4806.4
663.817	4786.08
664.157	4565.08
664.498	4763.22
664.839	4572.7
665.179	4529.52
665.52	4499.04
665.86	4440.61
666.201	4417.75
666.541	4199.29
666.882	4356.79
667.222	4275.5
667.562	4214.53
667.903	4158.65
668.243	4115.47
668.583	4036.72
668.923	4011.32
669.263	4011.32
669.603	3912.25
669.943	3843.66
670.283	3841.12
670.623	3721.73
670.963	3701.41
671.302	3691.25
671.642	3714.11
671.982	3670.93
672.321	3541.38
672.661	3475.33
673	3490.57
673.34	3521.06
673.679	3429.61
674.019	3455.01
674.358	3457.55
674.697	3368.64
675.036	3190.83
675.376	3211.15
675.715	3203.53
676.054	3241.63
676.393	3170.51
676.732	3162.88
677.071	3025.71
677.41	3048.58
677.748	3071.44
678.087	2903.78
678.426	2809.8
678.765	2812.34
679.103	2868.22
679.442	2779.31
679.78	2746.29
680.119	2804.71
680.457	2593.88
680.796	2708.19
681.134	2601.5
681.472	2611.66
681.811	2644.68
682.149	2596.42
682.487	2454.16
682.825	2426.22
683.163	2410.98
683.501	2352.56
683.839	2413.52
684.177	2362.72
684.515	2197.6
684.853	2281.43
685.191	2220.47
685.528	2200.14
685.866	2154.42
686.204	2316.99
686.541	2144.26
686.879	2291.59
687.216	2174.74
687.554	2070.59
687.891	2095.99
688.228	2014.71
688.566	1976.6
688.903	2060.43
689.24	1923.26
689.577	1951.2
689.914	1920.72
690.251	1951.2
690.588	1892.78
690.925	1864.84
691.262	1796.25
691.599	1770.85
691.936	1791.17
692.273	1864.84
692.609	1895.32
692.946	1699.72
693.282	1737.82
693.619	1687.02
693.956	1747.99
694.292	1737.82
694.628	1651.46
694.965	1628.6
695.301	1638.76
695.637	1633.68
695.974	1643.84
696.31	1483.8
696.646	1580.33
696.982	1554.93
697.318	1435.54
697.654	1450.78
697.99	1440.62
698.326	1575.25
698.662	1476.18
698.997	1468.56
699.333	1394.9
699.669	1491.42
700.004	1374.57
700.34	1377.11
700.675	1351.71
701.011	1280.59
701.346	1267.88
701.682	1326.31
702.017	1331.39
702.352	1379.65
702.688	1349.17
703.023	1288.21
703.358	1311.07
703.693	1349.17
704.028	1247.56
704.363	1272.97
704.698	1206.92
705.033	1135.79
705.368	1130.71
705.703	1176.44
706.037	1128.17
706.372	1145.95
706.707	1135.79
707.041	1077.37
707.376	1079.91
707.71	1161.2
708.045	1029.1
708.379	973.22
708.714	1064.67
709.048	1097.69
709.382	1112.93
709.716	970.68
710.051	1003.7
710.385	937.66
710.719	1018.94
711.053	1062.13
711.387	1021.48
711.721	1044.35
712.055	980.84
712.388	1001.16
712.722	889.39
713.056	899.55
713.39	846.21
713.723	874.15
714.057	919.88
714.39	919.88
714.724	823.35
715.057	935.12
715.391	963.06
715.724	843.67
716.057	853.83
716.39	871.61
716.724	800.49
717.057	800.49
717.39	836.05
717.723	785.24
718.056	775.08
718.389	790.32
718.722	846.21
719.055	833.51
719.387	747.14
719.72	777.62
720.053	719.2
720.385	747.14
720.718	744.6
721.051	670.93
721.383	696.34
721.716	734.44
722.048	797.94
722.38	731.9
722.713	770
723.045	726.82
723.377	706.5
723.709	706.5
724.041	653.15
724.373	703.96
724.705	701.42
725.037	701.42
725.369	701.42
725.701	691.26
726.033	747.14
726.365	658.23
726.696	607.43
727.028	703.96
727.36	673.47
727.691	625.21
728.023	592.19
728.354	653.15
728.686	574.41
729.017	625.21
729.348	589.65
729.68	640.45
730.011	620.13
730.342	564.25
730.673	589.65
731.004	546.46
731.335	663.31
731.666	571.87
731.997	589.65
732.328	536.3
732.659	515.98
732.99	564.25
733.32	569.33
733.651	653.15
733.982	531.22
734.312	531.22
734.643	508.36
734.973	556.62
735.304	513.44
735.634	523.6
735.965	503.28
736.295	582.03
736.625	485.5
736.955	518.52
737.285	559.16
737.616	579.49
737.946	564.25
738.276	480.42
738.605	480.42
738.935	475.34
739.265	531.22
739.595	437.23
739.925	477.88
740.254	467.72
740.584	429.61
740.914	477.88
741.243	490.58
741.573	475.34
741.902	404.21
742.232	488.04
742.561	500.74
742.89	467.72
743.22	475.34
743.549	521.06
743.878	556.62
744.207	528.68
744.536	414.37
744.865	480.42
745.194	457.56
745.523	455.02
745.852	465.18
746.181	444.86
746.509	472.8
746.838	515.98
747.167	348.33
747.495	495.66
747.824	434.69
748.152	411.83
748.481	414.37
748.809	447.4
749.138	480.42
749.466	434.69
749.794	467.72
750.122	500.74
750.451	358.49
750.779	442.31
751.107	419.45
751.435	388.97
751.763	447.4
752.091	467.72
752.419	482.96
752.746	452.48
753.074	406.75
753.402	378.81
753.73	455.02
754.057	401.67
754.385	345.79
754.712	424.53
755.04	381.35
755.367	409.29
755.695	401.67
756.022	317.84
756.349	460.1
756.676	452.48
757.004	340.71
757.331	452.48
757.658	345.79
757.985	366.11
758.312	371.19
758.639	340.71
758.966	437.23
759.292	434.69
759.619	409.29
759.946	376.27
760.273	340.71
760.599	317.84
760.926	363.57
761.252	467.72
761.579	353.41
761.905	371.19
762.232	371.19
762.558	414.37
762.884	333.09
763.21	388.97
763.537	452.48
763.863	350.87
764.189	429.61
764.515	338.17
764.841	376.27
765.167	396.59
765.493	361.03
765.818	366.11
766.144	401.67
766.47	495.66
766.796	399.13
767.121	391.51
767.447	394.05
767.772	421.99
768.098	348.33
768.423	386.43
768.749	325.47
769.074	394.05
769.399	345.79
769.725	391.51
770.05	322.92
770.375	399.13
770.7	333.09
771.025	414.37
771.35	300.06
771.675	419.45
772	335.63
772.325	414.37
772.649	368.65
772.974	350.87
773.299	345.79
773.624	363.57
773.948	434.69
774.273	371.19
774.597	361.03
774.922	338.17
775.246	267.04
775.57	399.13
775.895	294.98
776.219	386.43
776.543	421.99
776.867	376.27
777.191	401.67
777.515	373.73
777.839	333.09
778.163	391.51
778.487	328.01
778.811	366.11
779.135	338.17
779.458	302.6
779.782	371.19
780.106	345.79
780.429	328.01
780.753	294.98
781.076	414.37
781.4	366.11
781.723	373.73
782.047	386.43
782.37	297.52
782.693	378.81
783.016	383.89
783.339	394.05
783.663	307.68
783.986	361.03
784.309	355.95
784.632	333.09
784.954	358.49
785.277	310.22
785.6	386.43
785.923	358.49
786.245	378.81
786.568	325.47
786.891	294.98
787.213	383.89
787.536	376.27
787.858	325.47
788.181	358.49
788.503	353.41
788.825	348.33
789.147	368.65
789.47	333.09
789.792	427.07
790.114	409.29
790.436	386.43
790.758	330.55
791.08	322.92
791.402	317.84
791.724	366.11
792.045	317.84
792.367	294.98
792.689	358.49
793.01	371.19
793.332	378.81
793.653	371.19
793.975	272.12
794.296	386.43
794.618	320.38
794.939	310.22
795.26	416.91
795.582	317.84
795.903	383.89
796.224	350.87
796.545	391.51
796.866	404.21
797.187	452.48
797.508	307.68
797.829	366.11
798.15	335.63
798.471	312.76
798.791	325.47
799.112	396.59
799.433	394.05
799.753	343.25
800.074	348.33
800.394	282.28
800.715	297.52
801.035	404.21
801.355	343.25
801.676	340.71
801.996	373.73
802.316	340.71
802.636	399.13
802.956	363.57
803.276	376.27
803.596	358.49
803.916	320.38
804.236	330.55
804.556	317.84
804.876	348.33
805.195	396.59
805.515	355.95
805.835	371.19
806.154	289.9
806.474	391.51
806.793	358.49
807.113	343.25
807.432	411.83
807.751	325.47
808.071	335.63
808.39	300.06
808.709	338.17
809.028	371.19
809.347	312.76
809.666	246.72
809.985	350.87
810.304	355.95
810.623	350.87
810.942	322.92
811.261	345.79
811.579	320.38
811.898	338.17
812.217	447.4
812.535	312.76
812.854	368.65
813.172	315.3
813.491	315.3
813.809	317.84
814.127	383.89
814.446	310.22
814.764	343.25
815.082	317.84
815.4	411.83
815.718	363.57
816.036	366.11
816.354	302.6
816.672	401.67
816.99	340.71
817.308	307.68
817.625	378.81
817.943	363.57
818.261	330.55
818.578	340.71
818.896	305.14
819.213	340.71
819.531	373.73
819.848	361.03
820.166	340.71
820.483	338.17
820.8	381.35
821.117	287.36
821.435	335.63
821.752	376.27
822.069	355.95
822.386	350.87
822.703	340.71
823.02	333.09
823.336	363.57
823.653	424.53
823.97	376.27
824.287	355.95
824.603	358.49
824.92	394.05
825.236	388.97
825.553	388.97
825.869	429.61
826.186	300.06
826.502	363.57
826.818	325.47
827.135	330.55
827.451	325.47
827.767	371.19
828.083	338.17
828.399	322.92
828.715	325.47
829.031	333.09
829.347	376.27
829.663	294.98
829.979	317.84
830.294	363.57
830.61	302.6
830.926	307.68
831.241	256.88
831.557	396.59
831.872	388.97
832.188	282.28
832.503	330.55
832.818	345.79
833.134	388.97
833.449	325.47
833.764	373.73
834.079	279.74
834.394	307.68
834.709	315.3
835.024	368.65
835.339	368.65
835.654	396.59
835.969	315.3
836.284	317.84
836.598	350.87
836.913	335.63
837.228	328.01
837.542	307.68
837.857	330.55
838.171	305.14
838.485	368.65
838.8	320.38
839.114	355.95
839.428	355.95
839.743	261.96
840.057	294.98
840.371	315.3
840.685	358.49
840.999	267.04
841.313	363.57
841.627	348.33
841.941	338.17
842.254	350.87
842.568	381.35
842.882	302.6
843.196	330.55
843.509	335.63
843.823	300.06
844.136	310.22
844.45	368.65
844.763	386.43
845.076	282.28
845.39	330.55
845.703	371.19
846.016	391.51
846.329	363.57
846.642	363.57
846.955	320.38
847.268	432.15
847.581	345.79
847.894	302.6
848.207	338.17
848.52	350.87
848.832	330.55
849.145	363.57
849.458	388.97
849.77	305.14
850.083	330.55
850.395	325.47
850.708	363.57
851.02	300.06
851.332	353.41
851.645	396.59
851.957	322.92
852.269	287.36
852.581	274.66
852.893	333.09
853.205	363.57
853.517	343.25
853.829	330.55
854.141	343.25
854.453	328.01
854.765	312.76
855.076	328.01
855.388	335.63
855.7	261.96
856.011	376.27
856.323	328.01
856.634	284.82
856.945	322.92
857.257	383.89
857.568	338.17
857.879	361.03
858.191	317.84
858.502	358.49
858.813	394.05
859.124	305.14
859.435	361.03
859.746	310.22
860.057	335.63
860.368	439.77
860.678	383.89
860.989	300.06
861.3	305.14
861.61	353.41
861.921	396.59
862.231	394.05
862.542	361.03
862.852	373.73
863.163	343.25
863.473	368.65
863.783	378.81
864.094	305.14
864.404	373.73
864.714	363.57
865.024	305.14
865.334	330.55
865.644	333.09
865.954	312.76
866.264	328.01
866.573	333.09
866.883	279.74
867.193	368.65
867.503	292.44
867.812	325.47
868.122	302.6
868.431	350.87
868.741	284.82
869.05	307.68
869.359	292.44
869.669	317.84
869.978	340.71
870.287	307.68
870.596	305.14
870.905	287.36
871.214	406.75
871.523	335.63
871.832	391.51
872.141	231.48
872.45	350.87
872.759	297.52
873.068	460.1
873.376	350.87
873.685	373.73
873.993	310.22
874.302	300.06
874.61	335.63
874.919	345.79
875.227	302.6
875.536	401.67
875.844	437.23
876.152	322.92
876.46	312.76
876.768	378.81
877.076	294.98
877.384	404.21
877.692	368.65
878	312.76
878.308	381.35
878.616	328.01
878.924	338.17
879.231	376.27
879.539	328.01
879.847	345.79
880.154	279.74
880.462	325.47
880.769	317.84
881.077	300.06
881.384	338.17
881.691	325.47
881.998	343.25
882.306	366.11
882.613	421.99
882.92	401.67
883.227	302.6
883.534	322.92
883.841	338.17
884.148	289.9
884.454	300.06
884.761	409.29
885.068	333.09
885.375	361.03
885.681	355.95
885.988	325.47
886.294	310.22
886.601	353.41
886.907	345.79
887.213	302.6
887.52	343.25
887.826	259.42
888.132	272.12
888.438	272.12
888.745	343.25
889.051	302.6
889.357	325.47
889.662	282.28
889.968	256.88
890.274	302.6
890.58	328.01
890.886	312.76
891.191	292.44
891.497	310.22
891.803	302.6
892.108	371.19
892.414	302.6
892.719	307.68
893.024	300.06
893.33	358.49
893.635	421.99
893.94	373.73
894.245	320.38
894.551	366.11
894.856	310.22
895.161	289.9
895.466	353.41
895.771	269.58
896.075	297.52
896.38	330.55
896.685	376.27
896.99	348.33
897.294	335.63
897.599	386.43
897.903	310.22
898.208	297.52
898.512	300.06
898.817	363.57
899.121	312.76
899.425	305.14
899.73	310.22
900.034	274.66
900.338	328.01
900.642	302.6
900.946	348.33
901.25	366.11
901.554	383.89
901.858	310.22
902.162	348.33
902.465	300.06
902.769	267.04
903.073	383.89
903.376	396.59
903.68	391.51
903.983	305.14
904.287	330.55
904.59	328.01
904.894	272.12
905.197	325.47
905.5	353.41
905.803	366.11
906.107	335.63
906.41	343.25
906.713	368.65
907.016	343.25
907.319	312.76
907.621	322.92
907.924	322.92
908.227	279.74
908.53	297.52
908.832	282.28
909.135	333.09
909.438	378.81
909.74	294.98
910.043	254.34
910.345	287.36
910.647	358.49
910.95	345.79
911.252	358.49
911.554	338.17
911.856	335.63
912.158	406.75
912.461	378.81
912.763	361.03
913.064	310.22
913.366	404.21
913.668	338.17
913.97	320.38
914.272	294.98
914.573	391.51
914.875	383.89
915.177	366.11
915.478	381.35
915.78	322.92
916.081	381.35
916.382	348.33
916.684	297.52
916.985	340.71
917.286	383.89
917.587	361.03
917.888	300.06
918.19	269.58
918.491	320.38
918.792	302.6
919.092	371.19
919.393	335.63
919.694	366.11
919.995	325.47
920.295	307.68
920.596	340.71
920.897	338.17
921.197	277.2
921.498	312.76
921.798	289.9
922.099	350.87
922.399	320.38
922.699	345.79
922.999	297.52
923.3	305.14
923.6	310.22
923.9	386.43
924.2	317.84
924.5	462.64
924.8	333.09
925.099	279.74
925.399	302.6
925.699	279.74
925.999	355.95
926.298	348.33
926.598	264.5
926.898	333.09
927.197	264.5
927.496	353.41
927.796	320.38
928.095	363.57
928.394	287.36
928.694	409.29
928.993	302.6
929.292	284.82
929.591	328.01
929.89	264.5
930.189	355.95
930.488	343.25
930.787	333.09
931.086	340.71
931.384	267.04
931.683	267.04
931.982	333.09
932.28	343.25
932.579	294.98
932.877	335.63
933.176	325.47
933.474	338.17
933.773	333.09
934.071	317.84
934.369	353.41
934.667	419.45
934.965	355.95
935.263	399.13
935.561	300.06
935.859	394.05
936.157	340.71
936.455	307.68
936.753	300.06
937.051	366.11
937.348	307.68
937.646	315.3
937.944	355.95
938.241	366.11
938.539	322.92
938.836	366.11
939.134	312.76
939.431	338.17
939.728	307.68
940.025	343.25
940.323	348.33
940.62	363.57
940.917	355.95
941.214	284.82
941.511	312.76
941.808	376.27
942.105	297.52
942.401	348.33
942.698	399.13
942.995	358.49
943.292	292.44
943.588	315.3
943.885	391.51
944.181	355.95
944.478	350.87
944.774	353.41
945.07	348.33
945.367	371.19
945.663	399.13
945.959	376.27
946.255	312.76
946.551	269.58
946.847	320.38
947.143	274.66
947.439	348.33
947.735	343.25
948.031	361.03
948.327	320.38
948.622	373.73
948.918	335.63
949.214	312.76
949.509	279.74
949.805	325.47
950.1	333.09
950.395	348.33
950.691	348.33
950.986	325.47
951.281	251.8
951.576	343.25
951.872	310.22
952.167	325.47
952.462	363.57
952.757	221.32
953.052	206.07
953.346	345.79
953.641	317.84
953.936	328.01
954.231	241.64
954.525	264.5
954.82	348.33
955.115	340.71
955.409	325.47
955.703	373.73
955.998	261.96
956.292	371.19
956.586	350.87
956.881	328.01
957.175	292.44
957.469	348.33
957.763	355.95
958.057	325.47
958.351	335.63
958.645	338.17
958.939	330.55
959.233	343.25
959.526	261.96
959.82	317.84
960.114	355.95
960.407	381.35
960.701	338.17
960.994	312.76
961.288	340.71
961.581	343.25
961.874	300.06
962.168	325.47
962.461	353.41
962.754	376.27
963.047	343.25
963.34	355.95
963.633	302.6
963.926	338.17
964.219	353.41
964.512	277.2
964.805	343.25
965.098	302.6
965.39	386.43
965.683	409.29
965.975	315.3
966.268	317.84
966.56	378.81
966.853	353.41
967.145	361.03
967.438	287.36
967.73	340.71
968.022	244.18
968.314	312.76
968.606	284.82
968.898	289.9
969.19	284.82
969.482	287.36
969.774	287.36
970.066	328.01
970.358	315.3
970.65	409.29
970.941	355.95
971.233	305.14
971.525	340.71
971.816	394.05
972.108	335.63
972.399	358.49
972.69	353.41
972.982	320.38
973.273	399.13
973.564	307.68
973.855	371.19
974.146	353.41
974.437	345.79
974.728	396.59
975.019	366.11
975.31	376.27
975.601	378.81
975.892	322.92
976.183	378.81
976.473	373.73
976.764	333.09
977.054	381.35
977.345	404.21
977.635	381.35
977.926	267.04
978.216	348.33
978.506	340.71
978.797	277.2
979.087	320.38
979.377	376.27
979.667	320.38
979.957	396.59
980.247	310.22
980.537	396.59
980.827	312.76
981.117	335.63
981.407	348.33
981.696	259.42
981.986	251.8
982.276	307.68
982.565	272.12
982.855	345.79
983.144	381.35
983.433	358.49
983.723	310.22
984.012	343.25
984.301	277.2
984.59	315.3
984.88	350.87
985.169	330.55
985.458	317.84
985.747	284.82
986.036	277.2
986.324	315.3
986.613	254.34
986.902	305.14
987.191	317.84
987.479	284.82
987.768	312.76
988.056	282.28
988.345	429.61
988.633	300.06
988.922	322.92
989.21	307.68
989.498	348.33
989.787	284.82
990.075	335.63
990.363	302.6
990.651	350.87
990.939	345.79
991.227	353.41
991.515	277.2
991.803	322.92
992.09	396.59
992.378	307.68
992.666	353.41
992.953	361.03
993.241	322.92
993.529	343.25
993.816	239.1
994.103	317.84
994.391	355.95
994.678	373.73
994.965	322.92
995.253	300.06
995.54	269.58
995.827	338.17
996.114	358.49
996.401	302.6
996.688	366.11
996.975	315.3
997.262	361.03
997.548	269.58
997.835	287.36
998.122	348.33
998.408	399.13
998.695	310.22
998.981	320.38
999.268	223.86
999.554	386.43
999.841	320.38
1000.127	361.03
1000.413	284.82
1000.699	348.33
1000.985	373.73
1001.271	335.63
1001.558	264.5
1001.843	333.09
1002.129	386.43
1002.415	348.33
1002.701	312.76
1002.987	394.05
1003.273	373.73
1003.558	353.41
1003.844	345.79
1004.129	394.05
1004.415	246.72
1004.7	236.56
1004.986	328.01
1005.271	307.68
1005.556	312.76
1005.841	345.79
1006.127	289.9
1006.412	305.14
1006.697	310.22
1006.982	317.84
1007.267	231.48
1007.552	371.19
1007.836	292.44
1008.121	300.06
1008.406	310.22
1008.691	272.12
1008.975	300.06
1009.26	338.17
1009.544	325.47
1009.829	300.06
1010.113	348.33
1010.398	361.03
1010.682	305.14
1010.966	282.28
1011.25	335.63
1011.535	340.71
1011.819	284.82
1012.103	322.92
1012.387	317.84
1012.671	277.2
1012.954	254.34
1013.238	246.72
1013.522	338.17
1013.806	350.87
1014.089	345.79
1014.373	343.25
1014.657	289.9
1014.94	279.74
1015.223	310.22
1015.507	317.84
1015.79	328.01
1016.073	330.55
1016.357	371.19
1016.64	294.98
1016.923	264.5
1017.206	325.47
1017.489	244.18
1017.772	345.79
1018.055	297.52
1018.338	328.01
1018.621	307.68
1018.903	312.76
1019.186	378.81
1019.469	371.19
1019.751	320.38
1020.034	315.3
1020.316	343.25
1020.599	345.79
1020.881	411.83
1021.163	284.82
1021.446	353.41
1021.728	368.65
1022.01	368.65
1022.292	368.65
