Data from solis1d_750mA_white_FLMS192441__1__16-05-24-377.txt Node

Date: Tue Sep 13 16:05:24 CEST 2022
User: Spectrometer
Spectrometer: FLMS19244
Trigger mode: 0
Integration Time (sec): 1.000000E-1
Scans to average: 1
Electric dark correction enabled: true
Nonlinearity correction enabled: false
Boxcar width: 0
XAxis mode: Wavelengths
Number of Pixels in Spectrum: 2048
>>>>>Begin Spectral Data<<<<<
338.974	-43.5
339.356	-43.5
339.738	-43.5
340.12	-68.9
340.502	-43.5
340.883	-104.47
341.265	-30.8
341.647	-71.44
342.029	-40.96
342.41	-84.14
342.792	-38.42
343.173	4.76
343.555	4.76
343.936	4.76
344.318	-7.94
344.699	14.92
345.08	12.38
345.462	68.27
345.843	22.54
346.224	96.21
346.605	149.56
346.986	126.69
347.368	205.44
347.749	202.9
348.13	185.12
348.51	296.89
348.891	205.44
349.272	294.35
349.653	268.95
350.034	314.67
350.414	294.35
350.795	294.35
351.176	340.07
351.556	317.21
351.937	350.23
352.317	345.15
352.698	324.83
353.078	362.93
353.459	345.15
353.839	479.78
354.219	406.12
354.599	345.15
354.98	393.42
355.36	355.31
355.74	375.63
356.12	385.8
356.5	355.31
356.88	413.74
357.26	411.2
357.64	289.27
358.02	345.15
358.399	350.23
358.779	291.81
359.159	347.69
359.539	337.53
359.918	350.23
360.298	378.17
360.677	378.17
361.057	319.75
361.436	258.78
361.816	352.77
362.195	411.2
362.574	324.83
362.954	362.93
363.333	317.21
363.712	312.13
364.091	312.13
364.47	355.31
364.849	362.93
365.228	345.15
365.607	368.01
365.986	357.85
366.365	406.12
366.744	312.13
367.123	360.39
367.501	411.2
367.88	284.19
368.259	350.23
368.637	312.13
369.016	444.22
369.394	301.97
369.773	416.28
370.151	428.98
370.53	312.13
370.908	317.21
371.286	383.25
371.665	304.51
372.043	365.47
372.421	362.93
372.799	360.39
373.177	352.77
373.555	375.63
373.933	360.39
374.311	357.85
374.689	403.58
375.067	388.34
375.445	334.99
375.823	337.53
376.2	355.31
376.578	342.61
376.956	329.91
377.333	395.96
377.711	370.55
378.088	314.67
378.466	368.01
378.843	271.49
379.22	370.55
379.598	347.69
379.975	345.15
380.352	340.07
380.73	352.77
381.107	307.05
381.484	294.35
381.861	345.15
382.238	332.45
382.615	388.34
382.992	345.15
383.369	365.47
383.746	370.55
384.122	459.46
384.499	451.84
384.876	314.67
385.252	334.99
385.629	444.22
386.006	329.91
386.382	347.69
386.759	421.36
387.135	360.39
387.512	368.01
387.888	342.61
388.264	324.83
388.641	373.09
389.017	388.34
389.393	350.23
389.769	378.17
390.145	334.99
390.521	439.14
390.897	441.68
391.273	383.25
391.649	345.15
392.025	345.15
392.401	350.23
392.777	327.37
393.152	378.17
393.528	360.39
393.904	360.39
394.279	327.37
394.655	390.88
395.03	411.2
395.406	423.9
395.781	322.29
396.157	401.04
396.532	388.34
396.907	428.98
397.283	418.82
397.658	347.69
398.033	418.82
398.408	380.71
398.783	375.63
399.158	406.12
399.533	436.6
399.908	431.52
400.283	266.41
400.658	421.36
401.033	421.36
401.407	441.68
401.782	423.9
402.157	395.96
402.531	393.42
402.906	434.06
403.28	434.06
403.655	357.85
404.029	370.55
404.404	464.54
404.778	378.17
405.153	418.82
405.527	426.44
405.901	434.06
406.275	444.22
406.649	426.44
407.023	462
407.397	441.68
407.771	449.3
408.145	449.3
408.519	350.23
408.893	479.78
409.267	444.22
409.641	436.6
410.015	411.2
410.388	479.78
410.762	451.84
411.136	515.35
411.509	507.73
411.883	459.46
412.256	502.64
412.63	545.83
413.003	505.19
413.376	528.05
413.75	507.73
414.123	591.55
414.496	591.55
414.869	566.15
415.242	766.83
415.615	655.06
415.988	695.7
416.361	731.26
416.734	789.69
417.107	810.01
417.48	845.57
417.853	937.02
418.226	985.29
418.598	1018.31
418.971	1119.92
419.344	1183.42
419.716	1203.74
420.089	1320.59
420.461	1376.48
420.834	1574.62
421.206	1485.71
421.578	1617.8
421.951	1787.99
422.323	1922.63
422.695	2026.77
423.067	2184.27
423.439	2296.04
423.812	2560.22
424.184	2656.75
424.556	2755.82
424.928	3063.18
425.299	3185.11
425.671	3327.36
426.043	3446.75
426.415	3891.29
426.787	4061.49
427.158	4264.7
427.53	4503.48
427.902	4866.73
428.273	5003.91
428.645	5311.27
429.016	5641.5
429.387	6152.08
429.759	6472.15
430.13	6865.88
430.501	7292.64
430.873	7701.61
431.244	7810.84
431.615	8468.76
431.986	8862.49
432.357	9472.14
432.728	10206.27
433.099	10437.42
433.47	10991.19
433.841	11623.71
434.212	12426.41
434.583	12886.19
434.953	13762.57
435.324	14207.1
435.695	15327.34
436.065	16246.9
436.436	17044.52
436.806	17732.92
437.177	19147.82
437.547	19892.1
437.918	21296.84
438.288	21990.32
438.658	23242.65
439.028	24505.13
439.399	25592.35
439.769	26646.54
440.139	28231.63
440.509	29072.44
440.879	30906.48
441.249	31668.54
441.619	33146.94
441.989	34335.77
442.359	35577.93
442.728	36246.01
443.098	37617.72
443.468	38290.88
443.838	38824.32
444.207	39548.29
444.577	40104.59
444.946	40399.26
445.316	40422.12
445.685	40292.57
446.055	41156.24
446.424	40135.08
446.793	39896.3
447.163	39494.94
447.532	38501.72
447.901	37663.45
448.27	36553.37
448.639	35819.25
449.008	34673.61
449.377	33606.72
449.746	31953.04
450.115	31165.58
450.484	29207.07
450.853	28478.03
451.221	26750.68
451.59	25551.7
451.959	24136.8
452.327	23153.74
452.696	21827.75
453.065	21192.69
453.433	19719.37
453.801	18931.9
454.17	17722.76
454.538	17430.64
454.907	16447.57
455.275	15406.08
455.643	15032.67
456.011	14463.67
456.379	13892.12
456.747	13236.74
457.115	13071.63
457.483	12830.31
457.851	12388.31
458.219	11938.69
458.587	11600.84
458.955	11245.21
459.323	11087.72
459.69	11090.26
460.058	10876.88
460.426	10594.92
460.793	10244.37
461.161	10114.82
461.528	9782.05
461.896	9568.67
462.263	9604.23
462.631	9119.05
462.998	9096.19
463.365	8857.41
463.732	8481.46
464.1	8245.22
464.467	8014.06
464.834	7767.66
465.201	7861.65
465.568	7246.92
465.935	7297.72
466.302	7175.79
466.669	6693.15
467.035	6728.71
467.402	6487.39
467.769	6233.37
468.136	6080.96
468.502	5915.84
468.869	5801.53
469.235	5677.06
469.602	5656.74
469.968	5285.87
470.335	5323.97
470.701	5186.8
471.067	5123.3
471.434	5001.37
471.8	4953.1
472.166	4846.41
472.532	4925.16
472.898	4770.21
473.264	4627.95
473.63	4635.57
473.996	4633.03
474.362	4584.77
474.728	4503.48
475.094	4610.17
475.46	4633.03
475.825	4536.51
476.191	4622.87
476.557	4602.55
476.922	4676.22
477.288	4536.51
477.653	4554.29
478.019	4577.15
478.384	4582.23
478.749	4688.92
479.115	4579.69
479.48	4627.95
479.845	4691.46
480.21	4597.47
480.576	4625.41
480.941	4620.33
481.306	4757.5
481.671	4798.15
482.036	4716.86
482.401	4805.77
482.765	4843.87
483.13	4815.93
483.495	4861.65
483.86	4785.45
484.224	4978.5
484.589	4925.16
484.954	4988.66
485.318	5194.42
485.683	5268.09
486.047	5415.42
486.412	5580.53
486.776	5791.37
487.14	5776.13
487.504	5926
487.869	6111.44
488.233	6233.37
488.597	6380.7
488.961	6500.09
489.325	6858.26
489.689	6997.97
490.053	7450.13
490.417	7625.41
490.781	7846.41
491.145	8458.6
491.508	8445.9
491.872	8778.66
492.236	9162.24
492.599	9484.84
492.963	10097.04
493.327	10257.07
493.69	10754.95
494.054	11407.79
494.417	11529.72
494.78	12012.36
495.144	12489.92
495.507	13135.13
495.87	13434.88
496.233	14171.54
496.596	14362.06
496.959	15164.76
497.322	15954.77
497.685	16439.95
498.048	17214.72
498.411	18007.26
498.774	18494.99
499.137	19203.71
499.5	19762.55
499.862	20336.64
500.225	20966.61
500.588	22231.64
500.95	22760.01
501.313	23750.69
501.675	23997.09
502.038	24870.92
502.4	25843.83
502.762	26651.62
503.125	27121.56
503.487	28061.43
503.849	28884.46
504.211	30047.88
504.574	30802.33
504.936	31518.67
505.298	32303.59
505.66	33756.6
506.022	34231.62
506.383	35041.94
506.745	35953.88
507.107	36604.18
507.469	37945.41
507.831	38428.05
508.192	38979.28
508.554	39848.03
508.915	40777.75
509.277	41463.61
509.638	41984.35
510	42746.42
510.361	43719.32
510.723	44057.17
511.084	45126.6
511.445	45383.16
511.806	46089.34
512.167	46808.22
512.529	47364.53
512.89	48395.85
513.251	48748.94
513.612	48731.16
513.972	49592.29
514.333	49942.84
514.694	49605
515.055	50674.43
515.416	50839.54
515.776	50867.48
516.137	51637.17
516.498	51621.93
516.858	52434.8
517.219	52544.02
517.579	53344.19
517.94	53379.75
518.3	53494.06
518.66	54164.68
519.021	54192.62
519.381	54619.38
519.741	55241.73
520.101	54779.41
520.461	55018.19
520.821	55231.57
521.181	55881.87
521.541	55470.35
521.901	55721.83
522.261	56415.31
522.621	55983.48
522.981	56364.51
523.34	56524.54
523.7	56854.77
524.06	56844.61
524.419	56745.54
524.779	57185
525.138	56844.61
525.498	56699.82
525.857	56887.79
526.216	57228.18
526.576	57367.89
526.935	57202.78
527.294	57454.26
527.653	57456.8
528.013	57611.75
528.372	57403.46
528.731	57141.81
529.09	57238.34
529.449	57461.88
529.807	57479.66
530.166	57268.82
530.525	57461.88
530.884	57271.36
531.243	57301.85
531.601	57484.74
531.96	57124.03
532.318	57103.71
532.677	57370.43
533.035	56948.76
533.394	56547.4
533.752	56605.83
534.111	56951.3
534.469	57210.4
534.827	57091.01
535.185	57042.74
535.543	56687.11
535.902	57052.91
536.26	56948.76
536.618	56918.27
536.976	56722.68
537.334	56717.6
537.691	56636.31
538.049	56867.47
538.407	56643.93
538.765	56689.65
539.122	56727.76
539.48	56514.38
539.838	56791.26
540.195	56720.14
540.553	56697.28
540.91	56849.69
541.268	56529.62
541.625	56956.38
541.982	56412.77
542.34	56951.3
542.697	56880.17
543.054	56857.31
543.411	56974.16
543.768	57469.5
544.125	56981.78
544.482	57073.23
544.839	57248.5
545.196	56870.01
545.553	56941.14
545.91	57007.18
546.267	57083.39
546.623	56753.16
546.98	56727.76
547.337	56839.53
547.693	56938.6
548.05	56773.48
548.406	57060.53
548.763	56905.57
549.119	56930.98
549.475	56760.78
549.832	56999.56
550.188	56740.46
550.544	56740.46
550.9	56676.95
551.256	56864.93
551.612	56593.13
551.968	56758.24
552.324	56986.86
552.68	56458.5
553.036	56969.08
553.392	57243.42
553.748	56748.08
554.104	56887.79
554.459	56943.68
554.815	57024.96
555.17	57030.04
555.526	57068.15
555.882	57207.86
556.237	57002.1
556.592	57322.17
556.948	57106.25
557.303	56882.71
557.658	57667.64
558.014	57454.26
558.369	57599.05
558.724	57662.56
559.079	57601.59
559.434	57451.72
559.789	57599.05
560.144	58096.93
560.499	58002.95
560.854	57906.42
561.209	58002.95
561.563	57827.67
561.918	57985.16
562.273	57990.24
562.627	58256.97
562.982	58239.19
563.336	58485.59
563.691	58229.02
564.045	58587.2
564.4	58279.83
564.754	58726.91
565.108	58450.02
565.463	58462.72
565.817	58688.8
566.171	58081.69
566.525	58356.04
566.879	58610.06
567.233	58579.57
567.587	58190.92
567.941	58333.17
568.295	58546.55
568.649	58109.63
569.002	58226.48
569.356	58140.12
569.71	58262.05
570.064	57693.04
570.417	58129.96
570.771	58239.19
571.124	58063.91
571.478	57881.02
571.831	57571.11
572.184	57591.43
572.538	57599.05
572.891	57644.78
573.244	57314.55
573.597	57195.16
573.95	57378.05
574.304	57339.95
574.657	57129.11
575.01	57030.04
575.362	56773.48
575.715	57047.83
576.068	57240.88
576.421	56826.83
576.774	56903.03
577.126	56796.34
577.479	57121.49
577.832	56669.33
578.184	56369.59
578.537	56057.14
578.889	55673.57
579.242	56151.13
579.594	56229.88
579.946	56374.67
580.299	55696.43
580.651	55960.61
581.003	55894.57
581.355	55701.51
581.707	55523.7
582.059	55795.5
582.411	55124.88
582.763	55325.56
583.115	55620.22
583.467	55312.86
583.819	55310.32
584.171	54924.21
584.522	55091.86
584.874	54903.88
585.226	54652.4
585.577	54662.56
585.929	54743.85
586.28	54370.44
586.632	54337.42
586.983	54423.78
587.334	53951.3
587.686	53809.05
588.037	53567.73
588.388	53316.25
588.739	53603.29
589.09	53102.87
589.441	52843.77
589.792	52983.48
590.143	52231.58
590.494	52411.93
590.845	51672.73
591.196	51903.89
591.547	51375.53
591.897	51111.34
592.248	50925.91
592.599	51116.42
592.949	50301.01
593.3	50072.4
593.65	49315.41
594.001	49320.49
594.351	48647.33
594.702	48743.86
595.052	48558.43
595.402	48139.29
595.752	48045.3
596.102	47788.74
596.453	47313.72
596.803	47151.15
597.153	46264.61
597.503	46686.29
597.853	46008.05
598.202	45380.62
598.552	46025.83
598.902	45489.85
599.252	44664.28
599.601	44798.91
599.951	44448.36
600.301	44435.66
600.65	43945.4
601	43577.07
601.349	43361.15
601.699	43063.94
602.048	42461.91
602.397	42868.35
602.747	41809.08
603.096	42022.45
603.445	41720.17
603.794	41308.65
604.143	40912.38
604.492	40660.9
604.841	40843.8
605.19	40323.05
605.539	39751.5
605.888	39634.65
606.237	39187.58
606.585	39177.41
606.934	38725.26
607.283	38925.93
607.631	38217.21
607.98	37983.51
608.328	37531.36
608.677	37762.51
609.025	36964.89
609.374	36563.53
609.722	36294.27
610.07	35829.41
610.418	35301.05
610.767	34953.04
611.115	34859.05
611.463	34643.13
611.811	34084.28
612.159	33581.32
612.507	33200.29
612.855	33426.37
613.202	32943.73
613.55	32491.57
613.898	32163.88
614.246	31632.98
614.593	31348.47
614.941	31264.65
615.288	30484.8
615.636	30103.77
615.983	29781.16
616.331	29273.12
616.678	28973.37
617.026	28983.53
617.373	28401.82
617.72	27703.26
618.067	27677.86
618.414	27461.94
618.761	27050.43
619.108	26732.9
619.455	26044.5
619.802	25818.43
620.149	25887.01
620.496	25599.97
620.843	25325.62
621.19	24726.13
621.536	24583.88
621.883	24017.41
622.23	23890.4
622.576	24052.98
622.923	22991.17
623.269	23260.43
623.616	22533.93
623.962	22206.24
624.308	22114.79
624.655	21797.27
625.001	21413.69
625.347	21172.37
625.693	20781.18
626.039	20771.02
626.385	20321.4
626.731	20349.34
627.077	20049.6
627.423	19889.56
627.769	19762.55
628.115	19112.26
628.46	19226.57
628.806	18619.46
629.152	18113.95
629.497	18253.67
629.843	17892.96
630.189	17791.35
630.534	17626.23
630.879	17280.76
631.225	17133.43
631.57	16760.02
631.915	16480.6
632.261	16249.44
632.606	16132.59
632.951	16089.4
633.296	15787.12
633.641	15505.15
633.986	15159.68
634.331	15091.1
634.676	14537.33
635.021	14491.61
635.365	14113.12
635.71	14148.68
636.055	13960.7
636.4	13678.74
636.744	13442.5
637.089	13279.93
637.433	13160.54
637.778	12883.65
638.122	12726.16
638.466	12406.09
638.811	12299.4
639.155	12401.01
639.499	11918.37
639.843	11732.93
640.188	11720.23
640.532	11494.15
640.876	11412.87
641.22	11237.59
641.564	10772.73
641.908	10854.02
642.251	10709.23
642.595	10572.06
642.939	10368.84
643.283	10551.73
643.626	10328.2
643.97	10064.01
644.313	9898.9
644.657	9782.05
645	9751.57
645.344	9690.6
645.687	9482.3
646.03	9423.88
646.374	9370.53
646.717	9131.75
647.06	8938.7
647.403	8793.91
647.746	8847.25
648.089	8641.49
648.432	8141.07
648.775	8374.77
649.118	8014.06
649.461	8298.56
649.804	7942.93
650.146	8097.89
650.489	7904.83
650.832	7724.48
651.174	7719.4
651.517	7475.53
651.859	7417.11
652.202	7503.48
652.544	7117.36
652.887	7145.31
653.229	6942.09
653.571	6944.63
653.913	6850.64
654.256	6810
654.598	6873.5
654.94	6543.28
655.282	6347.68
655.624	6629.64
655.966	6340.06
656.308	6291.79
656.649	6223.21
656.991	6129.22
657.333	6017.45
657.675	5862.5
658.016	5913.3
658.358	5936.16
658.699	5618.64
659.041	5669.44
659.382	5542.43
659.724	5471.31
660.065	5430.66
660.406	5430.66
660.748	5313.81
661.089	5240.15
661.43	5087.73
661.771	4965.8
662.112	5057.25
662.453	5257.93
662.794	4930.24
663.135	4823.55
663.476	4813.39
663.817	4767.67
664.157	4701.62
664.498	4678.76
664.839	4681.3
665.179	4523.8
665.52	4536.51
665.86	4417.12
666.201	4345.99
666.541	4305.35
666.882	4419.66
667.222	4320.59
667.562	4168.17
667.903	4102.13
668.243	4086.89
668.583	4038.62
668.923	3997.98
669.263	4013.22
669.603	3970.04
669.943	3835.41
670.283	3914.15
670.623	3817.63
670.963	3693.15
671.302	3665.21
671.642	3726.18
671.982	3703.32
672.321	3538.2
672.661	3446.75
673	3431.51
673.34	3482.32
673.679	3467.08
674.019	3469.62
674.358	3332.44
674.697	3345.15
675.036	3284.18
675.376	3301.96
675.715	3086.04
676.054	3149.55
676.393	3164.79
676.732	2992.06
677.071	2961.57
677.41	3075.88
677.748	3022.54
678.087	2984.43
678.426	2862.5
678.765	2847.26
679.103	2852.34
679.442	2842.18
679.78	2887.91
680.119	2644.05
680.457	2595.78
680.796	2623.72
681.134	2730.41
681.472	2514.5
681.811	2560.22
682.149	2608.48
682.487	2509.41
682.825	2496.71
683.163	2369.7
683.501	2514.5
683.839	2491.63
684.177	2423.05
684.515	2308.74
684.853	2270.63
685.191	2263.01
685.528	2250.31
685.866	2171.57
686.204	2174.11
686.541	2232.53
686.879	2161.41
687.216	2049.64
687.554	2186.81
687.891	2077.58
688.228	1978.51
688.566	2075.04
688.903	2039.47
689.24	2057.26
689.577	1856.58
689.914	1983.59
690.251	1991.21
690.588	1922.63
690.925	1841.34
691.262	1821.02
691.599	1828.64
691.936	1696.55
692.273	1828.64
692.609	1742.27
692.946	1757.51
693.282	1762.59
693.619	1696.55
693.956	1650.82
694.292	1734.65
694.628	1747.35
694.965	1638.12
695.301	1650.82
695.637	1612.72
695.974	1592.4
696.31	1508.57
696.646	1620.34
696.982	1577.16
697.318	1587.32
697.654	1485.71
697.99	1475.55
698.326	1561.91
698.662	1437.44
698.997	1457.77
699.333	1396.8
699.669	1396.8
700.004	1384.1
700.34	1480.63
700.675	1241.85
701.011	1445.06
701.346	1333.3
701.682	1335.84
702.017	1246.93
702.352	1351.08
702.688	1325.67
703.023	1320.59
703.358	1170.72
703.693	1236.77
704.028	1224.07
704.363	1201.2
704.698	1168.18
705.033	1168.18
705.368	1175.8
705.703	1170.72
706.037	1147.86
706.372	1168.18
706.707	1081.81
707.041	1053.87
707.376	1127.54
707.71	1061.49
708.045	1117.38
708.379	1043.71
708.714	1109.76
709.048	1015.77
709.382	1048.79
709.716	1051.33
710.051	952.26
710.385	1046.25
710.719	980.21
711.053	1041.17
711.387	977.67
711.721	992.91
712.055	985.29
712.388	987.83
712.722	937.02
713.056	1000.53
713.39	911.62
713.723	934.48
714.057	914.16
714.39	914.16
714.724	891.3
715.057	891.3
715.391	873.52
715.724	904
716.057	893.84
716.39	850.65
716.724	825.25
717.057	782.07
717.39	822.71
717.723	909.08
718.056	759.21
718.389	787.15
718.722	776.99
719.055	776.99
719.387	774.45
719.72	881.14
720.053	835.41
720.385	723.64
720.718	774.45
721.051	797.31
721.383	723.64
721.716	680.46
722.048	761.75
722.38	761.75
722.713	688.08
723.045	670.3
723.377	751.59
723.709	660.14
724.041	675.38
724.373	606.79
724.705	690.62
725.037	731.26
725.369	700.78
725.701	703.32
726.033	667.76
726.365	726.18
726.696	721.1
727.028	665.22
727.36	578.85
727.691	647.44
728.023	591.55
728.354	609.33
728.686	535.67
729.017	594.09
729.348	611.87
729.68	695.7
730.011	599.17
730.342	555.99
730.673	606.79
731.004	558.53
731.335	601.71
731.666	558.53
731.997	566.15
732.328	591.55
732.659	639.82
732.99	594.09
733.32	487.4
733.651	561.07
733.982	482.32
734.312	512.81
734.643	520.43
734.973	477.24
735.304	589.01
735.634	545.83
735.965	545.83
736.295	497.56
736.625	543.29
736.955	553.45
737.285	540.75
737.616	550.91
737.946	533.13
738.276	484.86
738.605	550.91
738.935	497.56
739.265	528.05
739.595	515.35
739.925	555.99
740.254	492.48
740.584	462
740.914	502.64
741.243	515.35
741.573	561.07
741.902	525.51
742.232	469.62
742.561	459.46
742.89	500.1
743.22	477.24
743.549	444.22
743.878	512.81
744.207	411.2
744.536	482.32
744.865	467.08
745.194	454.38
745.523	510.27
745.852	454.38
746.181	500.1
746.509	497.56
746.838	418.82
747.167	507.73
747.495	408.66
747.824	451.84
748.152	441.68
748.481	472.16
748.809	406.12
749.138	472.16
749.466	459.46
749.794	434.06
750.122	439.14
750.451	421.36
750.779	449.3
751.107	395.96
751.435	449.3
751.763	390.88
752.091	449.3
752.419	390.88
752.746	406.12
753.074	426.44
753.402	388.34
753.73	421.36
754.057	388.34
754.385	319.75
754.712	421.36
755.04	456.92
755.367	337.53
755.695	426.44
756.022	418.82
756.349	362.93
756.676	375.63
757.004	395.96
757.331	406.12
757.658	406.12
757.985	408.66
758.312	329.91
758.639	355.31
758.966	395.96
759.292	390.88
759.619	395.96
759.946	439.14
760.273	421.36
760.599	355.31
760.926	439.14
761.252	360.39
761.579	446.76
761.905	403.58
762.232	360.39
762.558	456.92
762.884	459.46
763.21	431.52
763.537	368.01
763.863	434.06
764.189	380.71
764.515	406.12
764.841	393.42
765.167	350.23
765.493	327.37
765.818	373.09
766.144	421.36
766.47	373.09
766.796	362.93
767.121	401.04
767.447	352.77
767.772	362.93
768.098	322.29
768.423	444.22
768.749	352.77
769.074	418.82
769.399	332.45
769.725	434.06
770.05	317.21
770.375	423.9
770.7	401.04
771.025	368.01
771.35	312.13
771.675	411.2
772	301.97
772.325	474.7
772.649	370.55
772.974	312.13
773.299	332.45
773.624	327.37
773.948	342.61
774.273	322.29
774.597	261.32
774.922	342.61
775.246	309.59
775.57	362.93
775.895	342.61
776.219	327.37
776.543	322.29
776.867	342.61
777.191	373.09
777.515	312.13
777.839	329.91
778.163	383.25
778.487	352.77
778.811	362.93
779.135	307.05
779.458	383.25
779.782	322.29
780.106	301.97
780.429	291.81
780.753	395.96
781.076	383.25
781.4	312.13
781.723	388.34
782.047	373.09
782.37	299.43
782.693	373.09
783.016	332.45
783.339	334.99
783.663	342.61
783.986	281.65
784.309	398.5
784.632	352.77
784.954	309.59
785.277	301.97
785.6	373.09
785.923	360.39
786.245	327.37
786.568	362.93
786.891	312.13
787.213	368.01
787.536	413.74
787.858	365.47
788.181	342.61
788.503	312.13
788.825	299.43
789.147	342.61
789.47	289.27
789.792	418.82
790.114	383.25
790.436	347.69
790.758	342.61
791.08	332.45
791.402	299.43
791.724	373.09
792.045	340.07
792.367	347.69
792.689	312.13
793.01	342.61
793.332	347.69
793.653	413.74
793.975	411.2
794.296	362.93
794.618	352.77
794.939	314.67
795.26	327.37
795.582	281.65
795.903	398.5
796.224	281.65
796.545	329.91
796.866	416.28
797.187	342.61
797.508	304.51
797.829	428.98
798.15	332.45
798.471	304.51
798.791	352.77
799.112	340.07
799.433	345.15
799.753	332.45
800.074	411.2
800.394	312.13
800.715	362.93
801.035	319.75
801.355	357.85
801.676	342.61
801.996	388.34
802.316	368.01
802.636	413.74
802.956	360.39
803.276	418.82
803.596	319.75
803.916	401.04
804.236	352.77
804.556	408.66
804.876	329.91
805.195	393.42
805.515	362.93
805.835	317.21
806.154	289.27
806.474	322.29
806.793	281.65
807.113	322.29
807.432	345.15
807.751	332.45
808.071	332.45
808.39	398.5
808.709	342.61
809.028	385.8
809.347	271.49
809.666	352.77
809.985	324.83
810.304	373.09
810.623	309.59
810.942	301.97
811.261	368.01
811.579	436.6
811.898	322.29
812.217	312.13
812.535	296.89
812.854	375.63
813.172	319.75
813.491	301.97
813.809	266.41
814.127	370.55
814.446	324.83
814.764	383.25
815.082	403.58
815.4	309.59
815.718	352.77
816.036	345.15
816.354	398.5
816.672	362.93
816.99	393.42
817.308	332.45
817.625	299.43
817.943	314.67
818.261	357.85
818.578	347.69
818.896	383.25
819.213	398.5
819.531	319.75
819.848	385.8
820.166	411.2
820.483	307.05
820.8	350.23
821.117	332.45
821.435	284.19
821.752	337.53
822.069	360.39
822.386	378.17
822.703	342.61
823.02	324.83
823.336	304.51
823.653	383.25
823.97	284.19
824.287	296.89
824.603	279.11
824.92	365.47
825.236	378.17
825.553	365.47
825.869	345.15
826.186	342.61
826.502	355.31
826.818	355.31
827.135	385.8
827.451	365.47
827.767	327.37
828.083	370.55
828.399	360.39
828.715	355.31
829.031	309.59
829.347	370.55
829.663	286.73
829.979	337.53
830.294	319.75
830.61	373.09
830.926	352.77
831.241	360.39
831.557	309.59
831.872	332.45
832.188	373.09
832.503	357.85
832.818	383.25
833.134	286.73
833.449	352.77
833.764	322.29
834.079	294.35
834.394	322.29
834.709	370.55
835.024	368.01
835.339	388.34
835.654	350.23
835.969	383.25
836.284	342.61
836.598	370.55
836.913	385.8
837.228	332.45
837.542	368.01
837.857	296.89
838.171	342.61
838.485	360.39
838.8	393.42
839.114	370.55
839.428	456.92
839.743	342.61
840.057	357.85
840.371	418.82
840.685	413.74
840.999	360.39
841.313	393.42
841.627	329.91
841.941	268.95
842.254	357.85
842.568	352.77
842.882	286.73
843.196	327.37
843.509	342.61
843.823	355.31
844.136	271.49
844.45	334.99
844.763	329.91
845.076	403.58
845.39	355.31
845.703	388.34
846.016	299.43
846.329	337.53
846.642	301.97
846.955	345.15
847.268	370.55
847.581	413.74
847.894	365.47
848.207	327.37
848.52	289.27
848.832	301.97
849.145	368.01
849.458	380.71
849.77	334.99
850.083	352.77
850.395	301.97
850.708	309.59
851.02	418.82
851.332	395.96
851.645	357.85
851.957	322.29
852.269	332.45
852.581	304.51
852.893	411.2
853.205	380.71
853.517	368.01
853.829	317.21
854.141	375.63
854.453	342.61
854.765	332.45
855.076	345.15
855.388	340.07
855.7	334.99
856.011	403.58
856.323	332.45
856.634	334.99
856.945	296.89
857.257	360.39
857.568	337.53
857.879	418.82
858.191	314.67
858.502	416.28
858.813	317.21
859.124	324.83
859.435	360.39
859.746	319.75
860.057	329.91
860.368	309.59
860.678	324.83
860.989	307.05
861.3	276.57
861.61	266.41
861.921	373.09
862.231	329.91
862.542	406.12
862.852	324.83
863.163	360.39
863.473	312.13
863.783	347.69
864.094	299.43
864.404	360.39
864.714	332.45
865.024	307.05
865.334	390.88
865.644	362.93
865.954	352.77
866.264	357.85
866.573	304.51
866.883	337.53
867.193	383.25
867.503	347.69
867.812	324.83
868.122	365.47
868.431	370.55
868.741	357.85
869.05	294.35
869.359	390.88
869.669	426.44
869.978	352.77
870.287	355.31
870.596	401.04
870.905	383.25
871.214	380.71
871.523	347.69
871.832	334.99
872.141	373.09
872.45	352.77
872.759	296.89
873.068	263.86
873.376	375.63
873.685	398.5
873.993	337.53
874.302	289.27
874.61	360.39
874.919	304.51
875.227	375.63
875.536	350.23
875.844	423.9
876.152	301.97
876.46	350.23
876.768	334.99
877.076	317.21
877.384	266.41
877.692	373.09
878	378.17
878.308	355.31
878.616	345.15
878.924	370.55
879.231	327.37
879.539	390.88
879.847	304.51
880.154	284.19
880.462	312.13
880.769	319.75
881.077	347.69
881.384	406.12
881.691	350.23
881.998	398.5
882.306	322.29
882.613	345.15
882.92	395.96
883.227	403.58
883.534	324.83
883.841	276.57
884.148	375.63
884.454	345.15
884.761	393.42
885.068	299.43
885.375	304.51
885.681	324.83
885.988	268.95
886.294	337.53
886.601	337.53
886.907	370.55
887.213	299.43
887.52	327.37
887.826	380.71
888.132	324.83
888.438	271.49
888.745	383.25
889.051	365.47
889.357	357.85
889.662	360.39
889.968	332.45
890.274	271.49
890.58	319.75
890.886	334.99
891.191	352.77
891.497	378.17
891.803	307.05
892.108	434.06
892.414	355.31
892.719	352.77
893.024	411.2
893.33	350.23
893.635	322.29
893.94	324.83
894.245	312.13
894.551	301.97
894.856	337.53
895.161	408.66
895.466	370.55
895.771	301.97
896.075	337.53
896.38	309.59
896.685	345.15
896.99	388.34
897.294	352.77
897.599	385.8
897.903	312.13
898.208	324.83
898.512	238.46
898.817	322.29
899.121	309.59
899.425	357.85
899.73	309.59
900.034	296.89
900.338	362.93
900.642	347.69
900.946	380.71
901.25	352.77
901.554	319.75
901.858	317.21
902.162	319.75
902.465	337.53
902.769	393.42
903.073	230.84
903.376	385.8
903.68	332.45
903.983	340.07
904.287	393.42
904.59	368.01
904.894	284.19
905.197	307.05
905.5	312.13
905.803	337.53
906.107	334.99
906.41	319.75
906.713	294.35
907.016	368.01
907.319	334.99
907.621	324.83
907.924	342.61
908.227	304.51
908.53	334.99
908.832	309.59
909.135	314.67
909.438	266.41
909.74	309.59
910.043	329.91
910.345	352.77
910.647	329.91
910.95	375.63
911.252	418.82
911.554	307.05
911.856	276.57
912.158	246.08
912.461	299.43
912.763	248.62
913.064	319.75
913.366	350.23
913.668	299.43
913.97	368.01
914.272	322.29
914.573	327.37
914.875	291.81
915.177	393.42
915.478	299.43
915.78	352.77
916.081	340.07
916.382	322.29
916.684	317.21
916.985	317.21
917.286	271.49
917.587	327.37
917.888	368.01
918.19	355.31
918.491	329.91
918.792	393.42
919.092	345.15
919.393	355.31
919.694	375.63
919.995	362.93
920.295	261.32
920.596	385.8
920.897	319.75
921.197	304.51
921.498	337.53
921.798	291.81
922.099	416.28
922.399	373.09
922.699	360.39
922.999	319.75
923.3	317.21
923.6	355.31
923.9	322.29
924.2	281.65
924.5	332.45
924.8	324.83
925.099	304.51
925.399	327.37
925.699	271.49
925.999	357.85
926.298	284.19
926.598	304.51
926.898	304.51
927.197	342.61
927.496	309.59
927.796	324.83
928.095	360.39
928.394	268.95
928.694	291.81
928.993	408.66
929.292	309.59
929.591	317.21
929.89	296.89
930.189	357.85
930.488	329.91
930.787	337.53
931.086	284.19
931.384	345.15
931.683	314.67
931.982	296.89
932.28	304.51
932.579	299.43
932.877	329.91
933.176	375.63
933.474	350.23
933.773	365.47
934.071	378.17
934.369	383.25
934.667	279.11
934.965	383.25
935.263	355.31
935.561	385.8
935.859	322.29
936.157	357.85
936.455	352.77
936.753	304.51
937.051	304.51
937.348	423.9
937.646	279.11
937.944	286.73
938.241	299.43
938.539	340.07
938.836	373.09
939.134	357.85
939.431	284.19
939.728	352.77
940.025	373.09
940.323	368.01
940.62	329.91
940.917	279.11
941.214	337.53
941.511	327.37
941.808	294.35
942.105	368.01
942.401	352.77
942.698	319.75
942.995	294.35
943.292	294.35
943.588	390.88
943.885	301.97
944.181	317.21
944.478	289.27
944.774	370.55
945.07	332.45
945.367	428.98
945.663	314.67
945.959	276.57
946.255	312.13
946.551	256.24
946.847	350.23
947.143	360.39
947.439	350.23
947.735	423.9
948.031	294.35
948.327	357.85
948.622	393.42
948.918	357.85
949.214	317.21
949.509	268.95
949.805	294.35
950.1	413.74
950.395	345.15
950.691	309.59
950.986	342.61
951.281	390.88
951.576	337.53
951.872	375.63
952.167	347.69
952.462	337.53
952.757	286.73
953.052	289.27
953.346	284.19
953.641	309.59
953.936	304.51
954.231	309.59
954.525	337.53
954.82	274.03
955.115	332.45
955.409	268.95
955.703	291.81
955.998	329.91
956.292	370.55
956.586	337.53
956.881	317.21
957.175	327.37
957.469	342.61
957.763	307.05
958.057	345.15
958.351	385.8
958.645	375.63
958.939	301.97
959.233	380.71
959.526	334.99
959.82	370.55
960.114	314.67
960.407	388.34
960.701	317.21
960.994	304.51
961.288	312.13
961.581	268.95
961.874	304.51
962.168	314.67
962.461	350.23
962.754	373.09
963.047	378.17
963.34	375.63
963.633	304.51
963.926	286.73
964.219	342.61
964.512	380.71
964.805	314.67
965.098	329.91
965.39	345.15
965.683	286.73
965.975	332.45
966.268	350.23
966.56	388.34
966.853	329.91
967.145	314.67
967.438	312.13
967.73	266.41
968.022	334.99
968.314	342.61
968.606	345.15
968.898	342.61
969.19	324.83
969.482	360.39
969.774	235.92
970.066	284.19
970.358	301.97
970.65	334.99
970.941	337.53
971.233	350.23
971.525	380.71
971.816	286.73
972.108	360.39
972.399	360.39
972.69	368.01
972.982	322.29
973.273	248.62
973.564	327.37
973.855	357.85
974.146	385.8
974.437	322.29
974.728	322.29
975.019	289.27
975.31	375.63
975.601	304.51
975.892	327.37
976.183	347.69
976.473	251.16
976.764	299.43
977.054	360.39
977.345	309.59
977.635	329.91
977.926	296.89
978.216	281.65
978.506	322.29
978.797	332.45
979.087	342.61
979.377	380.71
979.667	332.45
979.957	373.09
980.247	296.89
980.537	408.66
980.827	307.05
981.117	337.53
981.407	307.05
981.696	345.15
981.986	294.35
982.276	294.35
982.565	380.71
982.855	334.99
983.144	324.83
983.433	284.19
983.723	340.07
984.012	342.61
984.301	284.19
984.59	268.95
984.88	299.43
985.169	378.17
985.458	332.45
985.747	279.11
986.036	342.61
986.324	362.93
986.613	253.7
986.902	307.05
987.191	276.57
987.479	322.29
987.768	241
988.056	319.75
988.345	319.75
988.633	279.11
988.922	286.73
989.21	312.13
989.498	383.25
989.787	256.24
990.075	368.01
990.363	263.86
990.651	291.81
990.939	291.81
991.227	268.95
991.515	279.11
991.803	289.27
992.09	312.13
992.378	378.17
992.666	383.25
992.953	337.53
993.241	286.73
993.529	378.17
993.816	314.67
994.103	357.85
994.391	334.99
994.678	299.43
994.965	370.55
995.253	274.03
995.54	329.91
995.827	319.75
996.114	241
996.401	296.89
996.688	355.31
996.975	317.21
997.262	235.92
997.548	307.05
997.835	279.11
998.122	350.23
998.408	340.07
998.695	304.51
998.981	340.07
999.268	327.37
999.554	271.49
999.841	286.73
1000.127	309.59
1000.413	322.29
1000.699	350.23
1000.985	388.34
1001.271	365.47
1001.558	352.77
1001.843	301.97
1002.129	322.29
1002.415	324.83
1002.701	314.67
1002.987	347.69
1003.273	317.21
1003.558	413.74
1003.844	309.59
1004.129	406.12
1004.415	365.47
1004.7	314.67
1004.986	276.57
1005.271	352.77
1005.556	395.96
1005.841	294.35
1006.127	395.96
1006.412	395.96
1006.697	291.81
1006.982	324.83
1007.267	385.8
1007.552	385.8
1007.836	299.43
1008.121	418.82
1008.406	355.31
1008.691	284.19
1008.975	233.38
1009.26	347.69
1009.544	350.23
1009.829	355.31
1010.113	294.35
1010.398	329.91
1010.682	304.51
1010.966	357.85
1011.25	268.95
1011.535	304.51
1011.819	322.29
1012.103	289.27
1012.387	233.38
1012.671	373.09
1012.954	375.63
1013.238	322.29
1013.522	352.77
1013.806	324.83
1014.089	337.53
1014.373	299.43
1014.657	291.81
1014.94	235.92
1015.223	340.07
1015.507	289.27
1015.79	347.69
1016.073	241
1016.357	329.91
1016.64	352.77
1016.923	342.61
1017.206	329.91
1017.489	362.93
1017.772	291.81
1018.055	317.21
1018.338	342.61
1018.621	383.25
1018.903	301.97
1019.186	347.69
1019.469	385.8
1019.751	393.42
1020.034	322.29
1020.316	317.21
1020.599	329.91
1020.881	294.35
1021.163	291.81
1021.446	312.13
1021.728	340.07
1022.01	340.07
1022.292	340.07
